0.000000000000000000e+00 -1.549019599857431873e-01
8.045051609704977069e-02 -1.800940992806082941e-01
1.609010321940995414e-01 -4.597487198308554124e-01
2.413515482911492982e-01 -1.252582126381032168e+00
3.218020643881990828e-01 -1.920118683331132559e+00
4.022525804852488118e-01 -2.434363411128270815e+00
4.827030965822985964e-01 -2.964562533964728797e+00
5.631536126793483810e-01 -3.265175846888385802e+00
6.436041287763981655e-01 -3.470036961172116019e+00
7.240546448734478391e-01 -3.511679927294895531e+00
8.045051609704976237e-01 -3.558018704265374588e+00
8.849556770675472972e-01 -3.682063012179527028e+00
9.654061931645971928e-01 -3.809243512207291626e+00
1.045856709261647088e+00 -3.906349667923034286e+00
1.126307225358696762e+00 -3.945456580599051577e+00
1.206757741455746435e+00 -3.967304831715493751e+00
1.287208257552796331e+00 -3.998603931733584638e+00
1.367658773649846005e+00 -3.965965714221414640e+00
1.448109289746895678e+00 -3.794880574233179704e+00
1.528559805843945352e+00 -3.667522071024517327e+00
1.609010321940995247e+00 -3.614756059580404468e+00
1.689460838038045143e+00 -3.585354598281068395e+00
1.769911354135094594e+00 -3.509220767035398758e+00
1.850361870232144490e+00 -3.436304618689894230e+00
1.930812386329194386e+00 -3.331268518351503616e+00
2.011262902426244281e+00 -3.227693597337459863e+00
2.091713418523294177e+00 -3.173332858723280747e+00
2.172163934620343628e+00 -3.158191418828541153e+00
2.252614450717393524e+00 -3.190890969527608867e+00
2.333064966814443419e+00 -3.258163399707064922e+00
2.413515482911492871e+00 -3.363515716000540667e+00
2.493965999008542767e+00 -3.432887310898396827e+00
2.574416515105592662e+00 -3.473743230909680069e+00
2.654867031202642558e+00 -3.485418089060840607e+00
2.735317547299692009e+00 -3.437028842001740525e+00
2.815768063396741905e+00 -3.372577710311262855e+00
2.896218579493791356e+00 -3.379190833266217275e+00
2.976669095590841252e+00 -3.397721534256721743e+00
3.057119611687890703e+00 -3.373885891608766396e+00
3.137570127784940599e+00 -3.323776498524993350e+00
3.218020643881990495e+00 -3.289125575097053833e+00
3.298471159979039946e+00 -3.280350031318826520e+00
3.378921676076090286e+00 -3.279886753141105338e+00
3.459372192173139737e+00 -3.283756338796129715e+00
3.539822708270189189e+00 -3.273272943510841859e+00
3.620273224367239528e+00 -3.271591619444856658e+00
3.700723740464288980e+00 -3.299883202718683517e+00
3.781174256561339320e+00 -3.311954679083110253e+00
3.861624772658388771e+00 -3.312723444747259993e+00
3.942075288755438223e+00 -3.311247965093984558e+00
4.022525804852488562e+00 -3.324883845598217924e+00
4.102976320949538014e+00 -3.346608496267654775e+00
4.183426837046588354e+00 -3.366472941996147661e+00
4.263877353143637805e+00 -3.388316704733729257e+00
4.344327869240687257e+00 -3.382040365904910750e+00
4.424778385337737596e+00 -3.367260094816266758e+00
4.505228901434787048e+00 -3.338802919022179516e+00
4.585679417531836499e+00 -3.323597136485244796e+00
4.666129933628886839e+00 -3.338753862891083113e+00
4.746580449725936290e+00 -3.373378152722731116e+00
4.827030965822985742e+00 -3.379100320846921246e+00
4.907481481920036082e+00 -3.370914323599952134e+00
4.987931998017085533e+00 -3.358172191055369016e+00
5.068382514114135873e+00 -3.335049790498268329e+00
5.148833030211185324e+00 -3.320660153458272035e+00
5.229283546308234776e+00 -3.321396200622816597e+00
5.309734062405285115e+00 -3.331141670653589237e+00
5.390184578502334567e+00 -3.336104242522806018e+00
5.470635094599384018e+00 -3.342117300032342531e+00
5.551085610696433470e+00 -3.355788232003027005e+00
5.631536126793483810e+00 -3.356683545132331581e+00
5.711986642890533261e+00 -3.365637273428456755e+00
5.792437158987582713e+00 -3.365043412921348231e+00
5.872887675084633052e+00 -3.362103483955063865e+00
5.953338191181682504e+00 -3.344352819269205135e+00
6.033788707278731955e+00 -3.313965816612040705e+00
6.114239223375781407e+00 -3.304999338294218880e+00
6.194689739472831747e+00 -3.323235843633610020e+00
6.275140255569881198e+00 -3.364635176777401870e+00
6.355590771666931538e+00 -3.398978512836887234e+00
6.436041287763980989e+00 -3.414537564570953254e+00
6.516491803861030441e+00 -3.423957785871997395e+00
6.596942319958079892e+00 -3.438453248046636990e+00
6.677392836055131120e+00 -3.447733307606766218e+00
6.757843352152180572e+00 -3.451528215488766538e+00
6.838293868249230023e+00 -3.434776485517546885e+00
6.918744384346279475e+00 -3.393050715777906401e+00
6.999194900443328926e+00 -3.360740900777636320e+00
7.079645416540378378e+00 -3.361477931525099994e+00
7.160095932637429605e+00 -3.368325342848252912e+00
7.240546448734479057e+00 -3.362337212805003972e+00
7.320996964831528508e+00 -3.374486777262115211e+00
7.401447480928577960e+00 -3.434503482206048286e+00
7.481897997025627411e+00 -3.497696792332167348e+00
7.562348513122678639e+00 -3.526803031523489729e+00
7.642799029219728091e+00 -3.511332942906128629e+00
7.723249545316777542e+00 -3.481773250534886177e+00
7.803700061413826994e+00 -3.426279500282290336e+00
7.884150577510876445e+00 -3.410288809996100401e+00
7.964601093607927673e+00 -3.429295052050963744e+00
8.045051609704977125e+00 -3.459773067868490148e+00
8.125502125802025688e+00 -3.478155051206551995e+00
8.205952641899076028e+00 -3.478239553355567448e+00
8.286403157996124591e+00 -3.443881335831675994e+00
8.366853674093176707e+00 -3.429149079539801193e+00
8.447304190190225270e+00 -3.449172158635058771e+00
8.527754706287275610e+00 -3.482503156180938308e+00
8.608205222384324173e+00 -3.477695343548987683e+00
8.688655738481374513e+00 -3.461846710267441729e+00
8.769106254578423076e+00 -3.451716568699192411e+00
8.849556770675475192e+00 -3.441669485732202549e+00
8.930007286772523756e+00 -3.446083691777835689e+00
9.010457802869574095e+00 -3.452916922826616108e+00
9.090908318966622659e+00 -3.430632380797021597e+00
9.171358835063672998e+00 -3.423235636132584858e+00
9.251809351160723338e+00 -3.435440790697636526e+00
9.332259867257773678e+00 -3.477329094315638081e+00
9.412710383354822241e+00 -3.504936056135148359e+00
9.493160899451872581e+00 -3.510918286001333932e+00
9.573611415548921144e+00 -3.518920265415990123e+00
9.654061931645971484e+00 -3.522460238921887310e+00
9.734512447743021823e+00 -3.510229763001560421e+00
9.814962963840072163e+00 -3.493370709947090091e+00
9.895413479937120727e+00 -3.487771367142382228e+00
9.975863996034171066e+00 -3.499402446747111206e+00
1.005631451213121963e+01 -3.515054954223431061e+00
1.013676502822827175e+01 -3.517213121960077959e+00
1.021721554432532031e+01 -3.525455341386652286e+00
1.029766606042237065e+01 -3.522490621216013640e+00
