0.000000000000000000e+00 -1.549019599857431873e-01
8.045051609704977069e-02 -1.927703880001500059e-01
1.609010321940995414e-01 -4.934836087906704361e-01
2.413515482911492982e-01 -1.338740703893622541e+00
3.218020643881990828e-01 -1.760652651665944868e+00
4.022525804852488118e-01 -2.447983808714108367e+00
4.827030965822985964e-01 -3.110550355198277384e+00
5.631536126793483810e-01 -3.228688918429535537e+00
6.436041287763981655e-01 -3.427504324366929644e+00
7.240546448734478391e-01 -3.617190915024332210e+00
8.045051609704976237e-01 -3.735172666152157817e+00
8.849556770675472972e-01 -3.759145542797362349e+00
9.654061931645971928e-01 -3.798249217457327020e+00
1.045856709261647088e+00 -3.872255439795145193e+00
1.126307225358696762e+00 -3.933112700604610712e+00
1.206757741455746435e+00 -3.911512409885656183e+00
1.287208257552796331e+00 -3.868969396113210557e+00
1.367658773649846005e+00 -3.839451049634857061e+00
1.448109289746895678e+00 -3.817933271728970013e+00
1.528559805843945352e+00 -3.734670762999461768e+00
1.609010321940995247e+00 -3.635403608014829757e+00
1.689460838038045143e+00 -3.573373734191176432e+00
1.769911354135094594e+00 -3.559382629788832908e+00
1.850361870232144490e+00 -3.531780316911411699e+00
1.930812386329194386e+00 -3.450370387558484797e+00
2.011262902426244281e+00 -3.378200362864678397e+00
2.091713418523294177e+00 -3.327145211207194642e+00
2.172163934620343628e+00 -3.303214922627724093e+00
2.252614450717393524e+00 -3.289216539659896021e+00
2.333064966814443419e+00 -3.316037889764404945e+00
2.413515482911492871e+00 -3.336683838807517066e+00
2.493965999008542767e+00 -3.327314166037486309e+00
2.574416515105592662e+00 -3.298611975321015244e+00
2.654867031202642558e+00 -3.296222564054994919e+00
2.735317547299692009e+00 -3.297142389870539425e+00
2.815768063396741905e+00 -3.297547071885301051e+00
2.896218579493791356e+00 -3.287596243167595578e+00
2.976669095590841252e+00 -3.284592516620219893e+00
3.057119611687890703e+00 -3.302525104331948125e+00
3.137570127784940599e+00 -3.320161706274860069e+00
3.218020643881990495e+00 -3.353887456701918790e+00
3.298471159979039946e+00 -3.376168191322030054e+00
3.378921676076090286e+00 -3.397367381643590534e+00
3.459372192173139737e+00 -3.394645811539116043e+00
3.539822708270189189e+00 -3.411152587851767670e+00
3.620273224367239528e+00 -3.421398008888498321e+00
3.700723740464288980e+00 -3.425289155700335986e+00
3.781174256561339320e+00 -3.407610374448980739e+00
3.861624772658388771e+00 -3.337562227773195556e+00
3.942075288755438223e+00 -3.279184437700264798e+00
4.022525804852488562e+00 -3.291102129170818014e+00
4.102976320949538014e+00 -3.322417934664671613e+00
4.183426837046588354e+00 -3.373421205283643864e+00
4.263877353143637805e+00 -3.395353346824262708e+00
4.344327869240687257e+00 -3.346851570877162452e+00
4.424778385337737596e+00 -3.287114439923152442e+00
4.505228901434787048e+00 -3.251170887434823964e+00
4.585679417531836499e+00 -3.267953063149004134e+00
4.666129933628886839e+00 -3.295363435283236608e+00
4.746580449725936290e+00 -3.330822848085003951e+00
4.827030965822985742e+00 -3.355936606497742503e+00
4.907481481920036082e+00 -3.354966658318028205e+00
4.987931998017085533e+00 -3.309387284009726926e+00
5.068382514114135873e+00 -3.251909350774337515e+00
5.148833030211185324e+00 -3.242508646621462542e+00
5.229283546308234776e+00 -3.280290042446660337e+00
5.309734062405285115e+00 -3.338835135206872806e+00
5.390184578502334567e+00 -3.358801855050586482e+00
5.470635094599384018e+00 -3.341136470543861758e+00
5.551085610696433470e+00 -3.327846849027712217e+00
5.631536126793483810e+00 -3.298621510128657341e+00
5.711986642890533261e+00 -3.281493416881808844e+00
5.792437158987582713e+00 -3.290599106227597659e+00
5.872887675084633052e+00 -3.334679136632154428e+00
5.953338191181682504e+00 -3.401522013215843021e+00
6.033788707278731955e+00 -3.434415031446390820e+00
6.114239223375781407e+00 -3.422039147702944817e+00
6.194689739472831747e+00 -3.385109244852205990e+00
6.275140255569881198e+00 -3.347156264733416542e+00
6.355590771666931538e+00 -3.331404611775984126e+00
6.436041287763980989e+00 -3.340281142515844515e+00
6.516491803861030441e+00 -3.359575625858638226e+00
6.596942319958079892e+00 -3.379162697568247609e+00
6.677392836055131120e+00 -3.408203235649069018e+00
6.757843352152180572e+00 -3.443661045706437829e+00
6.838293868249230023e+00 -3.452627147971961907e+00
6.918744384346279475e+00 -3.438108597050440363e+00
6.999194900443328926e+00 -3.412416141491267929e+00
7.079645416540378378e+00 -3.372443773732771710e+00
7.160095932637429605e+00 -3.354391593122457493e+00
7.240546448734479057e+00 -3.367641532599225496e+00
7.320996964831528508e+00 -3.381920116467962423e+00
7.401447480928577960e+00 -3.396492488532315335e+00
7.481897997025627411e+00 -3.399335782000260320e+00
7.562348513122678639e+00 -3.393312458879337523e+00
7.642799029219728091e+00 -3.384019727787097587e+00
7.723249545316777542e+00 -3.393535619822878324e+00
7.803700061413826994e+00 -3.402768499584286399e+00
7.884150577510876445e+00 -3.421291002443527685e+00
7.964601093607927673e+00 -3.416626453635126293e+00
8.045051609704977125e+00 -3.420904731547847799e+00
8.125502125802025688e+00 -3.426826939457882304e+00
8.205952641899076028e+00 -3.430192389836729916e+00
8.286403157996124591e+00 -3.463424488737779416e+00
8.366853674093176707e+00 -3.473903682204029231e+00
8.447304190190225270e+00 -3.455213896234693660e+00
8.527754706287275610e+00 -3.443640634662224809e+00
8.608205222384324173e+00 -3.469547438911591897e+00
8.688655738481374513e+00 -3.493067999215517361e+00
8.769106254578423076e+00 -3.469874121370688957e+00
8.849556770675475192e+00 -3.449213849581513891e+00
8.930007286772523756e+00 -3.455653653001721004e+00
9.010457802869574095e+00 -3.486086663962793875e+00
9.090908318966622659e+00 -3.493199801727211895e+00
9.171358835063672998e+00 -3.494591781114105622e+00
9.251809351160723338e+00 -3.498258519267911648e+00
9.332259867257773678e+00 -3.499073644499474778e+00
9.412710383354822241e+00 -3.476119762251268952e+00
9.493160899451872581e+00 -3.453628205999473177e+00
9.573611415548921144e+00 -3.452451348479100623e+00
9.654061931645971484e+00 -3.479947373831052015e+00
9.734512447743021823e+00 -3.513823759969060045e+00
9.814962963840072163e+00 -3.533011594331178618e+00
9.895413479937120727e+00 -3.529213941156583711e+00
9.975863996034171066e+00 -3.519645953425285967e+00
1.005631451213121963e+01 -3.523636290607633281e+00
1.013676502822827175e+01 -3.525831175352813762e+00
1.021721554432532031e+01 -3.516065763927164411e+00
1.029766606042237065e+01 -3.507645665525963796e+00
