0.000000000000000000e+00 -1.549019599857431873e-01
8.045051609704977069e-02 -2.023379315528262279e-01
1.609010321940995414e-01 -6.027760868197005184e-01
2.413515482911492982e-01 -1.687948831660512017e+00
3.218020643881990828e-01 -2.396862444542211978e+00
4.022525804852488118e-01 -3.029117256293668348e+00
4.827030965822985964e-01 -3.248991693964565108e+00
5.631536126793483810e-01 -3.240048295652210975e+00
6.436041287763981655e-01 -3.373373411904524222e+00
7.240546448734478391e-01 -3.665197405478796355e+00
8.045051609704976237e-01 -3.944460956523982986e+00
8.849556770675472972e-01 -4.075980417969267577e+00
9.654061931645971928e-01 -4.077114353594935459e+00
1.045856709261647088e+00 -4.048106977735195677e+00
1.126307225358696762e+00 -3.981496259794188752e+00
1.206757741455746435e+00 -3.919977630033693483e+00
1.287208257552796331e+00 -3.896478079584324128e+00
1.367658773649846005e+00 -3.844697620700820995e+00
1.448109289746895678e+00 -3.776805307499072395e+00
1.528559805843945352e+00 -3.699703766869883559e+00
1.609010321940995247e+00 -3.665076648136235349e+00
1.689460838038045143e+00 -3.633786757498033815e+00
1.769911354135094594e+00 -3.577799911277294242e+00
1.850361870232144490e+00 -3.481291133082372369e+00
1.930812386329194386e+00 -3.375266666042785246e+00
2.011262902426244281e+00 -3.341959407297761864e+00
2.091713418523294177e+00 -3.289691888490555716e+00
2.172163934620343628e+00 -3.227237740132671728e+00
2.252614450717393524e+00 -3.237832722397901541e+00
2.333064966814443419e+00 -3.309901063001704724e+00
2.413515482911492871e+00 -3.339101176831832607e+00
2.493965999008542767e+00 -3.314618784150590081e+00
2.574416515105592662e+00 -3.309964822014888952e+00
2.654867031202642558e+00 -3.305971685521590153e+00
2.735317547299692009e+00 -3.284926511571466978e+00
2.815768063396741905e+00 -3.302512501463429562e+00
2.896218579493791356e+00 -3.303918972717054370e+00
2.976669095590841252e+00 -3.304731726916635193e+00
3.057119611687890703e+00 -3.325792339365945427e+00
3.137570127784940599e+00 -3.303556386890601271e+00
3.218020643881990495e+00 -3.286911029485952707e+00
3.298471159979039946e+00 -3.307535909248362493e+00
3.378921676076090286e+00 -3.336457565027607597e+00
3.459372192173139737e+00 -3.333798278606360466e+00
3.539822708270189189e+00 -3.336609143455641302e+00
3.620273224367239528e+00 -3.323018738999949928e+00
3.700723740464288980e+00 -3.311359932651872118e+00
3.781174256561339320e+00 -3.279667536802719052e+00
3.861624772658388771e+00 -3.291520825382187709e+00
3.942075288755438223e+00 -3.328917937915935266e+00
4.022525804852488562e+00 -3.347898214430433228e+00
4.102976320949538014e+00 -3.304629424258702652e+00
4.183426837046588354e+00 -3.298832450738987454e+00
4.263877353143637805e+00 -3.307157327931023350e+00
4.344327869240687257e+00 -3.312762865918707167e+00
4.424778385337737596e+00 -3.315631338702936137e+00
4.505228901434787048e+00 -3.337661833524554478e+00
4.585679417531836499e+00 -3.369034515656352813e+00
4.666129933628886839e+00 -3.407454777815671410e+00
4.746580449725936290e+00 -3.412126462080284028e+00
4.827030965822985742e+00 -3.401554117389498089e+00
4.907481481920036082e+00 -3.388949450737087421e+00
4.987931998017085533e+00 -3.375683682959431220e+00
5.068382514114135873e+00 -3.362179517557990938e+00
5.148833030211185324e+00 -3.362953262719176717e+00
5.229283546308234776e+00 -3.366372724781765857e+00
5.309734062405285115e+00 -3.379109642677432745e+00
5.390184578502334567e+00 -3.376361111686061900e+00
5.470635094599384018e+00 -3.358256032649233003e+00
5.551085610696433470e+00 -3.361624601881378904e+00
5.631536126793483810e+00 -3.383521895208611241e+00
5.711986642890533261e+00 -3.367697276011771823e+00
5.792437158987582713e+00 -3.344477401413622264e+00
5.872887675084633052e+00 -3.340685150287393768e+00
5.953338191181682504e+00 -3.385691016032293277e+00
6.033788707278731955e+00 -3.399601450435588035e+00
6.114239223375781407e+00 -3.368266914206977436e+00
6.194689739472831747e+00 -3.332465692919183819e+00
6.275140255569881198e+00 -3.354186884526892065e+00
6.355590771666931538e+00 -3.397536760013502910e+00
6.436041287763980989e+00 -3.429096335577302757e+00
6.516491803861030441e+00 -3.443470117200800651e+00
6.596942319958079892e+00 -3.436648259460584942e+00
6.677392836055131120e+00 -3.415858567869697993e+00
6.757843352152180572e+00 -3.397351693158767727e+00
6.838293868249230023e+00 -3.368043872405385386e+00
6.918744384346279475e+00 -3.348711061100358322e+00
6.999194900443328926e+00 -3.363815124523257705e+00
7.079645416540378378e+00 -3.394499252082372909e+00
7.160095932637429605e+00 -3.422028971923652296e+00
7.240546448734479057e+00 -3.442982420558339030e+00
7.320996964831528508e+00 -3.459914994279751355e+00
7.401447480928577960e+00 -3.450299918671340560e+00
7.481897997025627411e+00 -3.455881907902961903e+00
7.562348513122678639e+00 -3.432384456333606781e+00
7.642799029219728091e+00 -3.409729007252697119e+00
7.723249545316777542e+00 -3.396028079354099116e+00
7.803700061413826994e+00 -3.399358582008708662e+00
7.884150577510876445e+00 -3.423468407143012815e+00
7.964601093607927673e+00 -3.457656959541042685e+00
8.045051609704977125e+00 -3.455070954328509636e+00
8.125502125802025688e+00 -3.427337578707134735e+00
8.205952641899076028e+00 -3.428307276722145414e+00
8.286403157996124591e+00 -3.469936158634991052e+00
8.366853674093176707e+00 -3.499682394608459202e+00
8.447304190190225270e+00 -3.489039097955711544e+00
8.527754706287275610e+00 -3.467266121933160417e+00
8.608205222384324173e+00 -3.452303750713196173e+00
8.688655738481374513e+00 -3.455558502332388038e+00
8.769106254578423076e+00 -3.455442860381475967e+00
8.849556770675475192e+00 -3.462896225300772901e+00
8.930007286772523756e+00 -3.479149265679896796e+00
9.010457802869574095e+00 -3.504082105367304134e+00
9.090908318966622659e+00 -3.538038972161662077e+00
9.171358835063672998e+00 -3.542660023741924569e+00
9.251809351160723338e+00 -3.537347991189620622e+00
9.332259867257773678e+00 -3.512329640790974317e+00
9.412710383354822241e+00 -3.489766329681418089e+00
9.493160899451872581e+00 -3.477535384525935136e+00
9.573611415548921144e+00 -3.493812641344660630e+00
9.654061931645971484e+00 -3.526576407414923509e+00
9.734512447743021823e+00 -3.548909688471573620e+00
9.814962963840072163e+00 -3.558015806846335227e+00
9.895413479937120727e+00 -3.564295688405063611e+00
9.975863996034171066e+00 -3.558723915127990356e+00
1.005631451213121963e+01 -3.554300749314321717e+00
1.013676502822827175e+01 -3.555701498518144987e+00
1.021721554432532031e+01 -3.543025576648778596e+00
1.029766606042237065e+01 -3.540670486370093517e+00
