0.000000000000000000e+00 -1.549019599857431873e-01
8.045051609704977069e-02 -2.090824133140279928e-01
1.609010321940995414e-01 -5.987919344727515858e-01
2.413515482911492982e-01 -1.426438710647078612e+00
3.218020643881990828e-01 -1.743453405386102384e+00
4.022525804852488118e-01 -2.591346238248822598e+00
4.827030965822985964e-01 -3.136179923649857759e+00
5.631536126793483810e-01 -3.082979018393218862e+00
6.436041287763981655e-01 -3.113577686986613635e+00
7.240546448734478391e-01 -3.253579474368352820e+00
8.045051609704976237e-01 -3.454167673221731238e+00
8.849556770675472972e-01 -3.637216446053372021e+00
9.654061931645971928e-01 -3.769230263319662377e+00
1.045856709261647088e+00 -3.890648412611024565e+00
1.126307225358696762e+00 -3.969493822546952710e+00
1.206757741455746435e+00 -3.996620944906633888e+00
1.287208257552796331e+00 -3.938016899301564067e+00
1.367658773649846005e+00 -3.868539970476538414e+00
1.448109289746895678e+00 -3.855354483680780486e+00
1.528559805843945352e+00 -3.878218341999787544e+00
1.609010321940995247e+00 -3.798576829313049075e+00
1.689460838038045143e+00 -3.686172270689392683e+00
1.769911354135094594e+00 -3.601479238792894666e+00
1.850361870232144490e+00 -3.491428642106230384e+00
1.930812386329194386e+00 -3.368879256497915087e+00
2.011262902426244281e+00 -3.310626778505144419e+00
2.091713418523294177e+00 -3.288525703960301527e+00
2.172163934620343628e+00 -3.259421111964984519e+00
2.252614450717393524e+00 -3.254318440018313385e+00
2.333064966814443419e+00 -3.261910640916866555e+00
2.413515482911492871e+00 -3.264558729024976014e+00
2.493965999008542767e+00 -3.271462558443363644e+00
2.574416515105592662e+00 -3.300738700767507083e+00
2.654867031202642558e+00 -3.392678125545743661e+00
2.735317547299692009e+00 -3.441798518052503475e+00
2.815768063396741905e+00 -3.380541641610309345e+00
2.896218579493791356e+00 -3.316360422128605379e+00
2.976669095590841252e+00 -3.325979317772318034e+00
3.057119611687890703e+00 -3.350602997421283202e+00
3.137570127784940599e+00 -3.376656302915096663e+00
3.218020643881990495e+00 -3.343710389725433885e+00
3.298471159979039946e+00 -3.300951378073574194e+00
3.378921676076090286e+00 -3.293835279809842476e+00
3.459372192173139737e+00 -3.280708133468431154e+00
3.539822708270189189e+00 -3.260705323817808754e+00
3.620273224367239528e+00 -3.259285846123785468e+00
3.700723740464288980e+00 -3.295035808377802411e+00
3.781174256561339320e+00 -3.338034729974296067e+00
3.861624772658388771e+00 -3.354882453908253126e+00
3.942075288755438223e+00 -3.367812724994275086e+00
4.022525804852488562e+00 -3.405772546688986324e+00
4.102976320949538014e+00 -3.409742269358860156e+00
4.183426837046588354e+00 -3.397149032612997832e+00
4.263877353143637805e+00 -3.404643589258631753e+00
4.344327869240687257e+00 -3.404127356923848158e+00
4.424778385337737596e+00 -3.392169053231979259e+00
4.505228901434787048e+00 -3.373659539442721567e+00
4.585679417531836499e+00 -3.358343619067866825e+00
4.666129933628886839e+00 -3.341299978354230760e+00
4.746580449725936290e+00 -3.366747017870489245e+00
4.827030965822985742e+00 -3.381408949688347043e+00
4.907481481920036082e+00 -3.405146843145137048e+00
4.987931998017085533e+00 -3.384697121967230604e+00
5.068382514114135873e+00 -3.355064239942294080e+00
5.148833030211185324e+00 -3.349951615474632050e+00
5.229283546308234776e+00 -3.373420664452623008e+00
5.309734062405285115e+00 -3.388280045782726013e+00
5.390184578502334567e+00 -3.386732756441014125e+00
5.470635094599384018e+00 -3.364395092436416768e+00
5.551085610696433470e+00 -3.363098512663888595e+00
5.631536126793483810e+00 -3.375682969802354716e+00
5.711986642890533261e+00 -3.404806928051396397e+00
5.792437158987582713e+00 -3.402717742801862233e+00
5.872887675084633052e+00 -3.374329440266937485e+00
5.953338191181682504e+00 -3.357657449621215484e+00
6.033788707278731955e+00 -3.383083150004288608e+00
6.114239223375781407e+00 -3.420748209668671880e+00
6.194689739472831747e+00 -3.440499257704685121e+00
6.275140255569881198e+00 -3.431722163806891768e+00
6.355590771666931538e+00 -3.365918495991959247e+00
6.436041287763980989e+00 -3.321386605443322093e+00
6.516491803861030441e+00 -3.337951442021792392e+00
6.596942319958079892e+00 -3.396520572967429707e+00
6.677392836055131120e+00 -3.447830034287375778e+00
6.757843352152180572e+00 -3.465616945332941956e+00
6.838293868249230023e+00 -3.448420759969392790e+00
6.918744384346279475e+00 -3.413762514982773943e+00
6.999194900443328926e+00 -3.405018979914030464e+00
7.079645416540378378e+00 -3.437931828454554584e+00
7.160095932637429605e+00 -3.479711553269090540e+00
7.240546448734479057e+00 -3.468035282664758245e+00
7.320996964831528508e+00 -3.442014653790300915e+00
7.401447480928577960e+00 -3.435524595383256941e+00
7.481897997025627411e+00 -3.445394453514104782e+00
7.562348513122678639e+00 -3.436933543996907758e+00
7.642799029219728091e+00 -3.425134453248041222e+00
7.723249545316777542e+00 -3.433645697826520404e+00
7.803700061413826994e+00 -3.445596992484297516e+00
7.884150577510876445e+00 -3.419028779515915772e+00
7.964601093607927673e+00 -3.418862100229698608e+00
8.045051609704977125e+00 -3.431319150315137900e+00
8.125502125802025688e+00 -3.415314591020081281e+00
8.205952641899076028e+00 -3.416992003523218635e+00
8.286403157996124591e+00 -3.440872187360935364e+00
8.366853674093176707e+00 -3.451096273083511967e+00
8.447304190190225270e+00 -3.457548946866026984e+00
8.527754706287275610e+00 -3.458380055557861876e+00
8.608205222384324173e+00 -3.429938545212618095e+00
8.688655738481374513e+00 -3.421792241458895045e+00
8.769106254578423076e+00 -3.466369549859846799e+00
8.849556770675475192e+00 -3.510407100003136271e+00
8.930007286772523756e+00 -3.520323372190075517e+00
9.010457802869574095e+00 -3.515898198703776512e+00
9.090908318966622659e+00 -3.537980251023468803e+00
9.171358835063672998e+00 -3.528188529439003407e+00
9.251809351160723338e+00 -3.492884817212225990e+00
9.332259867257773678e+00 -3.475493931963967498e+00
9.412710383354822241e+00 -3.486995356714973404e+00
9.493160899451872581e+00 -3.511442919537390850e+00
9.573611415548921144e+00 -3.534268577449032112e+00
9.654061931645971484e+00 -3.537938303190721001e+00
9.734512447743021823e+00 -3.549904639246325821e+00
9.814962963840072163e+00 -3.571703731082342070e+00
9.895413479937120727e+00 -3.562227803758197364e+00
9.975863996034171066e+00 -3.514990361016528730e+00
1.005631451213121963e+01 -3.516641488129306659e+00
1.013676502822827175e+01 -3.554331862011335108e+00
1.021721554432532031e+01 -3.570123617883005807e+00
1.029766606042237065e+01 -3.571535423038740831e+00
