0.000000000000000000e+00 -1.549019599857431873e-01
8.045051609704977069e-02 -2.046122891444009662e-01
1.609010321940995414e-01 -5.573472062833817464e-01
2.413515482911492982e-01 -1.069490646384841259e+00
3.218020643881990828e-01 -1.133718266426099630e+00
4.022525804852488118e-01 -1.442700939935920523e+00
4.827030965822985964e-01 -2.021657274572552065e+00
5.631536126793483810e-01 -2.461608329931198380e+00
6.436041287763981655e-01 -2.818339100118054219e+00
7.240546448734478391e-01 -2.950918922993468474e+00
8.045051609704976237e-01 -2.988285041591538072e+00
8.849556770675472972e-01 -3.015327026438005653e+00
9.654061931645971928e-01 -3.076818721856495298e+00
1.045856709261647088e+00 -3.184394875356901800e+00
1.126307225358696762e+00 -3.307127758985994426e+00
1.206757741455746435e+00 -3.359474988813894392e+00
1.287208257552796331e+00 -3.287181036293972625e+00
1.367658773649846005e+00 -3.199247967076320531e+00
1.448109289746895678e+00 -3.152527851806965487e+00
1.528559805843945352e+00 -3.116266269648369391e+00
1.609010321940995247e+00 -3.074717114841760690e+00
1.689460838038045143e+00 -3.039061105426713816e+00
1.769911354135094594e+00 -2.997293352136937816e+00
1.850361870232144490e+00 -2.966528502571103676e+00
1.930812386329194386e+00 -2.960117595239545096e+00
2.011262902426244281e+00 -2.946697048627805682e+00
2.091713418523294177e+00 -2.905249398602540278e+00
2.172163934620343628e+00 -2.841646831020664621e+00
2.252614450717393524e+00 -2.763850127868021644e+00
2.333064966814443419e+00 -2.741103225911226016e+00
2.413515482911492871e+00 -2.809038450308554591e+00
2.493965999008542767e+00 -2.876252925882894829e+00
2.574416515105592662e+00 -2.868328909207885857e+00
2.654867031202642558e+00 -2.899248535837924745e+00
2.735317547299692009e+00 -2.928100387736610521e+00
2.815768063396741905e+00 -2.959848223062671480e+00
2.896218579493791356e+00 -2.988719888796388613e+00
2.976669095590841252e+00 -2.952145311438028052e+00
3.057119611687890703e+00 -2.930278346324992622e+00
3.137570127784940599e+00 -2.932713673550481737e+00
3.218020643881990495e+00 -2.951670866638737234e+00
3.298471159979039946e+00 -2.995602626198838436e+00
3.378921676076090286e+00 -3.012659498746081077e+00
3.459372192173139737e+00 -2.954630340177435421e+00
3.539822708270189189e+00 -2.937517268159991257e+00
3.620273224367239528e+00 -2.988987560290570666e+00
3.700723740464288980e+00 -2.987900793452055392e+00
3.781174256561339320e+00 -2.911115753533922490e+00
3.861624772658388771e+00 -2.882182570740795313e+00
3.942075288755438223e+00 -2.921350158619760329e+00
4.022525804852488562e+00 -2.959833000546507442e+00
4.102976320949538014e+00 -2.958746026264980067e+00
4.183426837046588354e+00 -2.932839565082546507e+00
4.263877353143637805e+00 -2.932644712668675435e+00
4.344327869240687257e+00 -2.927187118714444924e+00
4.424778385337737596e+00 -2.943229239434840938e+00
4.505228901434787048e+00 -2.950286615726477546e+00
4.585679417531836499e+00 -2.970088245528216486e+00
4.666129933628886839e+00 -2.980422584616838400e+00
4.746580449725936290e+00 -3.000522752400031745e+00
4.827030965822985742e+00 -2.999411721462167613e+00
4.907481481920036082e+00 -2.987378601288778412e+00
4.987931998017085533e+00 -2.968842171339407088e+00
5.068382514114135873e+00 -2.988803101821880137e+00
5.148833030211185324e+00 -3.019125253630204675e+00
5.229283546308234776e+00 -3.009942804533081606e+00
5.309734062405285115e+00 -3.007100683344070102e+00
5.390184578502334567e+00 -3.041056126573363994e+00
5.470635094599384018e+00 -3.062892103564857305e+00
5.551085610696433470e+00 -3.032368962977363580e+00
5.631536126793483810e+00 -2.988384755473276755e+00
5.711986642890533261e+00 -2.966094744717912235e+00
5.792437158987582713e+00 -2.991113413418551303e+00
5.872887675084633052e+00 -2.994905921503451474e+00
5.953338191181682504e+00 -2.984232017325744835e+00
6.033788707278731955e+00 -2.975137668675759350e+00
6.114239223375781407e+00 -2.974874510295720587e+00
6.194689739472831747e+00 -2.947324751665261644e+00
6.275140255569881198e+00 -2.925993158386274384e+00
6.355590771666931538e+00 -2.948837392485715192e+00
6.436041287763980989e+00 -2.988574447361256770e+00
6.516491803861030441e+00 -3.012851839918587959e+00
6.596942319958079892e+00 -3.006171131537158647e+00
6.677392836055131120e+00 -3.009677440522793734e+00
6.757843352152180572e+00 -3.031666475596606514e+00
6.838293868249230023e+00 -3.048961964608361441e+00
6.918744384346279475e+00 -3.027108561913248064e+00
6.999194900443328926e+00 -2.997165308972192133e+00
7.079645416540378378e+00 -3.011830733886091238e+00
7.160095932637429605e+00 -3.016537876009145247e+00
7.240546448734479057e+00 -3.004071183936789069e+00
7.320996964831528508e+00 -3.022504171238618476e+00
7.401447480928577960e+00 -3.052988571271096685e+00
7.481897997025627411e+00 -3.064542926949415769e+00
7.562348513122678639e+00 -3.030765368506337154e+00
7.642799029219728091e+00 -3.010708628587426716e+00
7.723249545316777542e+00 -3.014230479104317073e+00
7.803700061413826994e+00 -3.027256241235710466e+00
7.884150577510876445e+00 -3.045711895372216205e+00
7.964601093607927673e+00 -3.063484100986008762e+00
8.045051609704977125e+00 -3.065244452554500842e+00
8.125502125802025688e+00 -3.052136052713189773e+00
8.205952641899076028e+00 -3.029783443841044921e+00
8.286403157996124591e+00 -3.022026212403912560e+00
8.366853674093176707e+00 -3.034614630742924923e+00
8.447304190190225270e+00 -3.038347719517858980e+00
8.527754706287275610e+00 -3.038245167432587657e+00
8.608205222384324173e+00 -3.050981224724544916e+00
8.688655738481374513e+00 -3.039074701133151368e+00
8.769106254578423076e+00 -3.026854205612972137e+00
8.849556770675475192e+00 -3.034713172542851556e+00
8.930007286772523756e+00 -3.064450486639988647e+00
9.010457802869574095e+00 -3.105612057591547348e+00
9.090908318966622659e+00 -3.128421139581992971e+00
9.171358835063672998e+00 -3.141737662614854987e+00
9.251809351160723338e+00 -3.140551063654936748e+00
9.332259867257773678e+00 -3.120335335854947711e+00
9.412710383354822241e+00 -3.107473229652625069e+00
9.493160899451872581e+00 -3.117368273871842899e+00
9.573611415548921144e+00 -3.145128794557209506e+00
9.654061931645971484e+00 -3.189767986674804767e+00
9.734512447743021823e+00 -3.206900490330808928e+00
9.814962963840072163e+00 -3.180198776889679113e+00
9.895413479937120727e+00 -3.164623969789219782e+00
9.975863996034171066e+00 -3.179133730912340194e+00
1.005631451213121963e+01 -3.208157824464203500e+00
1.013676502822827175e+01 -3.224866375429904064e+00
1.021721554432532031e+01 -3.206926259314554883e+00
1.029766606042237065e+01 -3.180583927569457625e+00
