0.000000000000000000e+00 -1.549019599857431873e-01
8.045051609704977069e-02 -1.827610193022804197e-01
1.609010321940995414e-01 -4.727275999068621393e-01
2.413515482911492982e-01 -1.130396466608743156e+00
3.218020643881990828e-01 -1.586795146487676611e+00
4.022525804852488118e-01 -1.927614057523598046e+00
4.827030965822985964e-01 -2.309819583581674163e+00
5.631536126793483810e-01 -2.576267168240940375e+00
6.436041287763981655e-01 -2.820808822950829686e+00
7.240546448734478391e-01 -2.996075250136298163e+00
8.045051609704976237e-01 -3.091389923999462219e+00
8.849556770675472972e-01 -3.149632597607517237e+00
9.654061931645971928e-01 -3.234054756155453347e+00
1.045856709261647088e+00 -3.331315302864609418e+00
1.126307225358696762e+00 -3.413322534170011746e+00
1.206757741455746435e+00 -3.443906120708672525e+00
1.287208257552796331e+00 -3.420257187596703830e+00
1.367658773649846005e+00 -3.313235780991166113e+00
1.448109289746895678e+00 -3.210337505857678853e+00
1.528559805843945352e+00 -3.178169411775896958e+00
1.609010321940995247e+00 -3.174138472065102690e+00
1.689460838038045143e+00 -3.165083863413652665e+00
1.769911354135094594e+00 -3.137881987032804076e+00
1.850361870232144490e+00 -3.076168058295811303e+00
1.930812386329194386e+00 -3.024835202100939480e+00
2.011262902426244281e+00 -2.979638097932578944e+00
2.091713418523294177e+00 -2.980296911511719937e+00
2.172163934620343628e+00 -3.025256105267903894e+00
2.252614450717393524e+00 -3.054107273267057110e+00
2.333064966814443419e+00 -3.048254877173901090e+00
2.413515482911492871e+00 -3.027866441684373466e+00
2.493965999008542767e+00 -3.009375517748495543e+00
2.574416515105592662e+00 -3.026970205167730743e+00
2.654867031202642558e+00 -3.068321874271093375e+00
2.735317547299692009e+00 -3.036928156724492123e+00
2.815768063396741905e+00 -2.995004390937236138e+00
2.896218579493791356e+00 -2.991019270613472614e+00
2.976669095590841252e+00 -2.978607623708059648e+00
3.057119611687890703e+00 -2.971155866840334170e+00
3.137570127784940599e+00 -2.985039983767915572e+00
3.218020643881990495e+00 -2.976789151629845254e+00
3.298471159979039946e+00 -2.974138354026210518e+00
3.378921676076090286e+00 -2.979538517177036105e+00
3.459372192173139737e+00 -2.985279597264784535e+00
3.539822708270189189e+00 -2.941434575311157484e+00
3.620273224367239528e+00 -2.866679695061017608e+00
3.700723740464288980e+00 -2.836549856615160348e+00
3.781174256561339320e+00 -2.851164506084818751e+00
3.861624772658388771e+00 -2.890916877077255087e+00
3.942075288755438223e+00 -2.931084890084743488e+00
4.022525804852488562e+00 -2.984068645335057113e+00
4.102976320949538014e+00 -3.014976259981774209e+00
4.183426837046588354e+00 -2.970448338671289434e+00
4.263877353143637805e+00 -2.952455521396058824e+00
4.344327869240687257e+00 -2.969435076508360805e+00
4.424778385337737596e+00 -2.977460857304542241e+00
4.505228901434787048e+00 -2.949453729179170036e+00
4.585679417531836499e+00 -2.956188255350255645e+00
4.666129933628886839e+00 -2.977470418563588517e+00
4.746580449725936290e+00 -2.976675586614229374e+00
4.827030965822985742e+00 -2.964271262538327179e+00
4.907481481920036082e+00 -2.976047475921708152e+00
4.987931998017085533e+00 -2.987277330515462737e+00
5.068382514114135873e+00 -2.995310472240257482e+00
5.148833030211185324e+00 -3.024103586033369151e+00
5.229283546308234776e+00 -3.015474414803643644e+00
5.309734062405285115e+00 -2.987290287623686424e+00
5.390184578502334567e+00 -2.987737783436186678e+00
5.470635094599384018e+00 -3.011294074494506035e+00
5.551085610696433470e+00 -3.006434509588955972e+00
5.631536126793483810e+00 -2.998733326790859799e+00
5.711986642890533261e+00 -3.001361148688685976e+00
5.792437158987582713e+00 -3.010059819011642990e+00
5.872887675084633052e+00 -3.009256012594097918e+00
5.953338191181682504e+00 -3.006340396904276346e+00
6.033788707278731955e+00 -3.000478187820445175e+00
6.114239223375781407e+00 -3.009832401865400353e+00
6.194689739472831747e+00 -2.983655342817837397e+00
6.275140255569881198e+00 -2.954558379117615097e+00
6.355590771666931538e+00 -2.960563152353698158e+00
6.436041287763980989e+00 -2.989662831458560266e+00
6.516491803861030441e+00 -3.027030941284529320e+00
6.596942319958079892e+00 -3.024542632011711696e+00
6.677392836055131120e+00 -2.985803733215438349e+00
6.757843352152180572e+00 -2.979136811975516608e+00
6.838293868249230023e+00 -2.986466083281125172e+00
6.918744384346279475e+00 -2.982927398193582214e+00
6.999194900443328926e+00 -2.958676981197974065e+00
7.079645416540378378e+00 -2.949102825285688567e+00
7.160095932637429605e+00 -2.940853002505565250e+00
7.240546448734479057e+00 -2.921443005765366419e+00
7.320996964831528508e+00 -2.950895621735832197e+00
7.401447480928577960e+00 -3.000407847623435931e+00
7.481897997025627411e+00 -3.030888545364555320e+00
7.562348513122678639e+00 -3.051262179536636587e+00
7.642799029219728091e+00 -3.061007561588805714e+00
7.723249545316777542e+00 -3.055656030562377889e+00
7.803700061413826994e+00 -3.028243751847855325e+00
7.884150577510876445e+00 -2.988761782492583396e+00
7.964601093607927673e+00 -2.976948547240616527e+00
8.045051609704977125e+00 -3.002055644128988732e+00
8.125502125802025688e+00 -3.034483612642171479e+00
8.205952641899076028e+00 -3.074946500568001895e+00
8.286403157996124591e+00 -3.105291822304576677e+00
8.366853674093176707e+00 -3.116241080009469755e+00
8.447304190190225270e+00 -3.095402163446423049e+00
8.527754706287275610e+00 -3.075436859388697375e+00
8.608205222384324173e+00 -3.070626727016710689e+00
8.688655738481374513e+00 -3.046558914109569915e+00
8.769106254578423076e+00 -3.034419189167406383e+00
8.849556770675475192e+00 -3.028903546588717077e+00
8.930007286772523756e+00 -3.025233879687077021e+00
9.010457802869574095e+00 -3.030672922698506522e+00
9.090908318966622659e+00 -3.054161039658988663e+00
9.171358835063672998e+00 -3.072113303022318220e+00
9.251809351160723338e+00 -3.076113900122234845e+00
9.332259867257773678e+00 -3.083180340864977609e+00
9.412710383354822241e+00 -3.081529009678782849e+00
9.493160899451872581e+00 -3.063602413813986569e+00
9.573611415548921144e+00 -3.067738215837960691e+00
9.654061931645971484e+00 -3.088278057626800965e+00
9.734512447743021823e+00 -3.081886031746059906e+00
9.814962963840072163e+00 -3.054055664712709284e+00
9.895413479937120727e+00 -3.029915083881365767e+00
9.975863996034171066e+00 -3.014406117644021332e+00
1.005631451213121963e+01 -3.034065199844193650e+00
1.013676502822827175e+01 -3.072421136565970823e+00
1.021721554432532031e+01 -3.114526027294125754e+00
1.029766606042237065e+01 -3.113498865874841481e+00
