0.000000000000000000e+00 -1.549019599857431873e-01
8.045051609704977069e-02 -2.039958573383325868e-01
1.609010321940995414e-01 -5.348009272242115753e-01
2.413515482911492982e-01 -1.310136616067924642e+00
3.218020643881990828e-01 -1.702447633911893021e+00
4.022525804852488118e-01 -1.933207699481080288e+00
4.827030965822985964e-01 -2.314635592917408946e+00
5.631536126793483810e-01 -2.628893825972666853e+00
6.436041287763981655e-01 -2.944089123574694433e+00
7.240546448734478391e-01 -3.207892226238532984e+00
8.045051609704976237e-01 -3.310301893501522930e+00
8.849556770675472972e-01 -3.309277292828801453e+00
9.654061931645971928e-01 -3.268328801960791896e+00
1.045856709261647088e+00 -3.263322144445119477e+00
1.126307225358696762e+00 -3.346835037384333855e+00
1.206757741455746435e+00 -3.452225850000181229e+00
1.287208257552796331e+00 -3.440026842410115471e+00
1.367658773649846005e+00 -3.346432455313066878e+00
1.448109289746895678e+00 -3.285469502066912462e+00
1.528559805843945352e+00 -3.218499690261033663e+00
1.609010321940995247e+00 -3.162586258575725395e+00
1.689460838038045143e+00 -3.106470125153857342e+00
1.769911354135094594e+00 -3.058800288658225508e+00
1.850361870232144490e+00 -3.058034124972523138e+00
1.930812386329194386e+00 -3.033716119449364701e+00
2.011262902426244281e+00 -2.988420365767973319e+00
2.091713418523294177e+00 -2.961957161256739468e+00
2.172163934620343628e+00 -3.014530297979103324e+00
2.252614450717393524e+00 -2.984033988719248853e+00
2.333064966814443419e+00 -2.885646027650361045e+00
2.413515482911492871e+00 -2.852594653082787257e+00
2.493965999008542767e+00 -2.859378414335888241e+00
2.574416515105592662e+00 -2.868056879264176295e+00
2.654867031202642558e+00 -2.885561713739706491e+00
2.735317547299692009e+00 -2.926251547925001084e+00
2.815768063396741905e+00 -2.935450983180546647e+00
2.896218579493791356e+00 -2.925965494101613995e+00
2.976669095590841252e+00 -2.898590671296586763e+00
3.057119611687890703e+00 -2.891562689091504268e+00
3.137570127784940599e+00 -2.901019502209895684e+00
3.218020643881990495e+00 -2.891775454766394304e+00
3.298471159979039946e+00 -2.906575260506895741e+00
3.378921676076090286e+00 -2.956594251355511016e+00
3.459372192173139737e+00 -2.976353974505943967e+00
3.539822708270189189e+00 -2.955857612671356716e+00
3.620273224367239528e+00 -2.980698143339035600e+00
3.700723740464288980e+00 -2.981292120367314613e+00
3.781174256561339320e+00 -2.950254962898722244e+00
3.861624772658388771e+00 -2.927000160268349749e+00
3.942075288755438223e+00 -2.953573354377656113e+00
4.022525804852488562e+00 -2.970246900694524239e+00
4.102976320949538014e+00 -2.951743664379758769e+00
4.183426837046588354e+00 -2.927145561668367701e+00
4.263877353143637805e+00 -2.923094069715850729e+00
4.344327869240687257e+00 -2.900866559221557228e+00
4.424778385337737596e+00 -2.912619674672402681e+00
4.505228901434787048e+00 -2.974665457972358595e+00
4.585679417531836499e+00 -3.022893215065577177e+00
4.666129933628886839e+00 -3.023010039324419918e+00
4.746580449725936290e+00 -2.980858782110305860e+00
4.827030965822985742e+00 -2.951971163596878167e+00
4.907481481920036082e+00 -2.961499506630535627e+00
4.987931998017085533e+00 -2.947560817431853497e+00
5.068382514114135873e+00 -2.931605831325801770e+00
5.148833030211185324e+00 -2.921156507162252058e+00
5.229283546308234776e+00 -2.943155920592902319e+00
5.309734062405285115e+00 -2.990595614620099596e+00
5.390184578502334567e+00 -3.049834927561310138e+00
5.470635094599384018e+00 -3.098847043281734770e+00
5.551085610696433470e+00 -3.089884413165603583e+00
5.631536126793483810e+00 -3.027493615655706183e+00
5.711986642890533261e+00 -2.975661279690160921e+00
5.792437158987582713e+00 -2.974491414176945625e+00
5.872887675084633052e+00 -2.987976889967614902e+00
5.953338191181682504e+00 -3.025622061380920158e+00
6.033788707278731955e+00 -3.047338380508496147e+00
6.114239223375781407e+00 -3.054295159484953448e+00
6.194689739472831747e+00 -3.068467870480537041e+00
6.275140255569881198e+00 -3.060883096147461568e+00
6.355590771666931538e+00 -3.034657169522110287e+00
6.436041287763980989e+00 -2.990617286069024772e+00
6.516491803861030441e+00 -2.953520221393819867e+00
6.596942319958079892e+00 -2.941684266083969934e+00
6.677392836055131120e+00 -2.969874647628101272e+00
6.757843352152180572e+00 -3.021535104108028502e+00
6.838293868249230023e+00 -3.025333936315683925e+00
6.918744384346279475e+00 -3.007424996389286065e+00
6.999194900443328926e+00 -2.997463925011138564e+00
7.079645416540378378e+00 -3.012238646529955766e+00
7.160095932637429605e+00 -3.016255011353732751e+00
7.240546448734479057e+00 -2.986054462441179336e+00
7.320996964831528508e+00 -2.971377926218056853e+00
7.401447480928577960e+00 -3.002277407387562658e+00
7.481897997025627411e+00 -3.036158023035926856e+00
7.562348513122678639e+00 -3.042930629075566440e+00
7.642799029219728091e+00 -3.031284343635676226e+00
7.723249545316777542e+00 -3.037174164846388358e+00
7.803700061413826994e+00 -3.060861355484863378e+00
7.884150577510876445e+00 -3.070108308640135064e+00
7.964601093607927673e+00 -3.097037177220092197e+00
8.045051609704977125e+00 -3.100523849499848605e+00
8.125502125802025688e+00 -3.085983218744739798e+00
8.205952641899076028e+00 -3.074008905123814195e+00
8.286403157996124591e+00 -3.089845511017664137e+00
8.366853674093176707e+00 -3.100332876148957251e+00
8.447304190190225270e+00 -3.121389588217613920e+00
8.527754706287275610e+00 -3.087587933156125342e+00
8.608205222384324173e+00 -3.041142580895141112e+00
8.688655738481374513e+00 -3.008699288764620228e+00
8.769106254578423076e+00 -3.014158746792013233e+00
8.849556770675475192e+00 -3.040205921657701094e+00
8.930007286772523756e+00 -3.086702892273788468e+00
9.010457802869574095e+00 -3.080745924859424445e+00
9.090908318966622659e+00 -3.075166979003520318e+00
9.171358835063672998e+00 -3.108314818438607130e+00
9.251809351160723338e+00 -3.137906629895427013e+00
9.332259867257773678e+00 -3.100375786500050079e+00
9.412710383354822241e+00 -3.042874614194428950e+00
9.493160899451872581e+00 -3.019195458520634645e+00
9.573611415548921144e+00 -3.038564105067285137e+00
9.654061931645971484e+00 -3.074304671931517685e+00
9.734512447743021823e+00 -3.094632802392340842e+00
9.814962963840072163e+00 -3.109091764340437436e+00
9.895413479937120727e+00 -3.120556115131193575e+00
9.975863996034171066e+00 -3.129725450544485366e+00
1.005631451213121963e+01 -3.125488546311921745e+00
1.013676502822827175e+01 -3.109843564917706527e+00
1.021721554432532031e+01 -3.110499569007373566e+00
1.029766606042237065e+01 -3.147303306876689799e+00
