0.000000000000000000e+00 -1.549019599857431873e-01
8.045051609704977069e-02 -1.784867962517057427e-01
1.609010321940995414e-01 -4.375186118295519844e-01
2.413515482911492982e-01 -1.045830904089626090e+00
3.218020643881990828e-01 -1.400760264896700802e+00
4.022525804852488118e-01 -1.851642960377267944e+00
4.827030965822985964e-01 -2.351908410559677254e+00
5.631536126793483810e-01 -2.744537529705773693e+00
6.436041287763981655e-01 -2.912968621878619491e+00
7.240546448734478391e-01 -3.049480376259269487e+00
8.045051609704976237e-01 -3.186778043018015705e+00
8.849556770675472972e-01 -3.260225367533432728e+00
9.654061931645971928e-01 -3.238929304610042692e+00
1.045856709261647088e+00 -3.234328895708503016e+00
1.126307225358696762e+00 -3.281640066841369663e+00
1.206757741455746435e+00 -3.355498060976846553e+00
1.287208257552796331e+00 -3.404252511546272508e+00
1.367658773649846005e+00 -3.350512503496794192e+00
1.448109289746895678e+00 -3.224745134901831456e+00
1.528559805843945352e+00 -3.124492010798827213e+00
1.609010321940995247e+00 -3.102277012038928916e+00
1.689460838038045143e+00 -3.071973673376302116e+00
1.769911354135094594e+00 -3.007760644552490703e+00
1.850361870232144490e+00 -2.971375398555947012e+00
1.930812386329194386e+00 -2.982548548502173880e+00
2.011262902426244281e+00 -3.006196083465188629e+00
2.091713418523294177e+00 -2.984490440322320470e+00
2.172163934620343628e+00 -2.946772604905365522e+00
2.252614450717393524e+00 -2.942018968963103553e+00
2.333064966814443419e+00 -2.914798302435571919e+00
2.413515482911492871e+00 -2.895943299801922777e+00
2.493965999008542767e+00 -2.921332207986044427e+00
2.574416515105592662e+00 -2.933563072886940848e+00
2.654867031202642558e+00 -2.978984688372142031e+00
2.735317547299692009e+00 -3.065241644807044530e+00
2.815768063396741905e+00 -3.128584284730925535e+00
2.896218579493791356e+00 -3.060144318995969392e+00
2.976669095590841252e+00 -2.983543565687742927e+00
3.057119611687890703e+00 -2.939612284372535633e+00
3.137570127784940599e+00 -2.922394541545448643e+00
3.218020643881990495e+00 -2.887645171739082528e+00
3.298471159979039946e+00 -2.881087709143934639e+00
3.378921676076090286e+00 -2.894645727136254454e+00
3.459372192173139737e+00 -2.925287302726652605e+00
3.539822708270189189e+00 -2.931154247534303092e+00
3.620273224367239528e+00 -2.931381874198659254e+00
3.700723740464288980e+00 -2.941283293896439055e+00
3.781174256561339320e+00 -2.948456410007334494e+00
3.861624772658388771e+00 -2.969288052131906053e+00
3.942075288755438223e+00 -3.017235614616919470e+00
4.022525804852488562e+00 -3.061252795508557778e+00
4.102976320949538014e+00 -3.072780013527323995e+00
4.183426837046588354e+00 -3.039885025697428134e+00
4.263877353143637805e+00 -3.019367518695664110e+00
4.344327869240687257e+00 -2.987270742372878374e+00
4.424778385337737596e+00 -2.943208742987539761e+00
4.505228901434787048e+00 -2.927592576658478052e+00
4.585679417531836499e+00 -2.925024849370627678e+00
4.666129933628886839e+00 -2.912324059636790974e+00
4.746580449725936290e+00 -2.931051018540594910e+00
4.827030965822985742e+00 -2.961788007973610970e+00
4.907481481920036082e+00 -2.980307568758054249e+00
4.987931998017085533e+00 -2.965918861659191386e+00
5.068382514114135873e+00 -2.942290535589004108e+00
5.148833030211185324e+00 -2.916355132039135878e+00
5.229283546308234776e+00 -2.911824266173217879e+00
5.309734062405285115e+00 -2.955070695826116811e+00
5.390184578502334567e+00 -3.017961058755477044e+00
5.470635094599384018e+00 -3.059899783947602092e+00
5.551085610696433470e+00 -3.074593833291417777e+00
5.631536126793483810e+00 -3.081547591763074578e+00
5.711986642890533261e+00 -3.079854049857818410e+00
5.792437158987582713e+00 -3.043415237147002461e+00
5.872887675084633052e+00 -2.995628668398647498e+00
5.953338191181682504e+00 -2.969961925882127929e+00
6.033788707278731955e+00 -2.998763331224102657e+00
6.114239223375781407e+00 -3.016759996113942410e+00
6.194689739472831747e+00 -3.021729466463916491e+00
6.275140255569881198e+00 -3.002647547822428820e+00
6.355590771666931538e+00 -3.003288789227603228e+00
6.436041287763980989e+00 -3.009227031412163633e+00
6.516491803861030441e+00 -3.030342508792172040e+00
6.596942319958079892e+00 -3.057724918851965068e+00
6.677392836055131120e+00 -3.094612709926144678e+00
6.757843352152180572e+00 -3.109717939930694008e+00
6.838293868249230023e+00 -3.087054168543193811e+00
6.918744384346279475e+00 -3.067332100317850418e+00
6.999194900443328926e+00 -3.069201634107543430e+00
7.079645416540378378e+00 -3.072842416357849160e+00
7.160095932637429605e+00 -3.081195964252282593e+00
7.240546448734479057e+00 -3.060528965673301016e+00
7.320996964831528508e+00 -3.056524139128084183e+00
7.401447480928577960e+00 -3.050361980978703258e+00
7.481897997025627411e+00 -3.026256710019825213e+00
7.562348513122678639e+00 -3.012958210626672795e+00
7.642799029219728091e+00 -3.001778632710230266e+00
7.723249545316777542e+00 -2.998810830671331917e+00
7.803700061413826994e+00 -3.010998855647238681e+00
7.884150577510876445e+00 -3.017193728427085997e+00
7.964601093607927673e+00 -3.024781614847338762e+00
8.045051609704977125e+00 -3.033586527284404255e+00
8.125502125802025688e+00 -3.029523483665323980e+00
8.205952641899076028e+00 -3.050341750397216334e+00
8.286403157996124591e+00 -3.091205662534195042e+00
8.366853674093176707e+00 -3.122060941818479485e+00
8.447304190190225270e+00 -3.113902126357384947e+00
8.527754706287275610e+00 -3.068651072803120439e+00
8.608205222384324173e+00 -3.046276484633223092e+00
8.688655738481374513e+00 -3.048993925538421745e+00
8.769106254578423076e+00 -3.068410594536965075e+00
8.849556770675475192e+00 -3.107017948199594759e+00
8.930007286772523756e+00 -3.150229041629178717e+00
9.010457802869574095e+00 -3.153042844180986570e+00
9.090908318966622659e+00 -3.119148289100007521e+00
9.171358835063672998e+00 -3.101636182140313114e+00
9.251809351160723338e+00 -3.120736426326986113e+00
9.332259867257773678e+00 -3.153260642959523796e+00
9.412710383354822241e+00 -3.183000593811187606e+00
9.493160899451872581e+00 -3.182195528668893658e+00
9.573611415548921144e+00 -3.161420040715691826e+00
9.654061931645971484e+00 -3.127451765454321908e+00
9.734512447743021823e+00 -3.097590902387521883e+00
9.814962963840072163e+00 -3.073596007101246474e+00
9.895413479937120727e+00 -3.072822790125029346e+00
9.975863996034171066e+00 -3.081847972818613446e+00
1.005631451213121963e+01 -3.108348027543460290e+00
1.013676502822827175e+01 -3.142015558531415120e+00
1.021721554432532031e+01 -3.156318210284175585e+00
1.029766606042237065e+01 -3.135316679451331634e+00
