0.000000000000000000e+00 -1.549019599857431873e-01
8.045051609704977069e-02 -3.853240456434580685e-01
1.609010321940995414e-01 -1.107342614756301469e+00
2.413515482911492982e-01 -2.629368629354031484e+00
3.218020643881990828e-01 -3.003458481513066491e+00
4.022525804852488118e-01 -3.367155227995181299e+00
4.827030965822985964e-01 -4.017482910446334543e+00
5.631536126793483810e-01 -4.756973800868015800e+00
6.436041287763981655e-01 -5.337064088196671996e+00
7.240546448734478391e-01 -5.722546596712959399e+00
8.045051609704976237e-01 -6.058227154476218068e+00
8.849556770675472972e-01 -6.249954259371697241e+00
9.654061931645971928e-01 -6.330304163222325364e+00
1.045856709261647088e+00 -6.396479356087289680e+00
1.126307225358696762e+00 -6.530777214363905792e+00
1.206757741455746435e+00 -6.690636338045746534e+00
1.287208257552796331e+00 -6.656852907200667246e+00
1.367658773649846005e+00 -6.562216325021127616e+00
1.448109289746895678e+00 -6.455701012416318108e+00
1.528559805843945352e+00 -6.353885627741866493e+00
1.609010321940995247e+00 -6.313480265198386121e+00
1.689460838038045143e+00 -6.215492514698482296e+00
1.769911354135094594e+00 -6.208106716551758275e+00
1.850361870232144490e+00 -6.176111686104436949e+00
1.930812386329194386e+00 -6.132158159358418459e+00
2.011262902426244281e+00 -6.060108263391491334e+00
2.091713418523294177e+00 -5.877071969096081538e+00
2.172163934620343628e+00 -5.720296513094098145e+00
2.252614450717393524e+00 -5.627792053400324512e+00
2.333064966814443419e+00 -5.613251029478377951e+00
2.413515482911492871e+00 -5.612533191758327433e+00
2.493965999008542767e+00 -5.603344579688123162e+00
2.574416515105592662e+00 -5.592065135813387045e+00
2.654867031202642558e+00 -5.601561539479220642e+00
2.735317547299692009e+00 -5.679882901979383725e+00
2.815768063396741905e+00 -5.842850188560015035e+00
2.896218579493791356e+00 -5.929785208596689117e+00
2.976669095590841252e+00 -5.911636409943983317e+00
3.057119611687890703e+00 -5.908148551999791387e+00
3.137570127784940599e+00 -5.964170710803172071e+00
3.218020643881990495e+00 -5.948196903967660987e+00
3.298471159979039946e+00 -5.912103527900349320e+00
3.378921676076090286e+00 -5.852488791439889759e+00
3.459372192173139737e+00 -5.790681052352993241e+00
3.539822708270189189e+00 -5.759006325438249974e+00
3.620273224367239528e+00 -5.787480930401871504e+00
3.700723740464288980e+00 -5.761701947722524864e+00
3.781174256561339320e+00 -5.787993289509049788e+00
3.861624772658388771e+00 -5.774680604462535172e+00
3.942075288755438223e+00 -5.730731714676146282e+00
4.022525804852488562e+00 -5.723172928597504594e+00
4.102976320949538014e+00 -5.742949711252768097e+00
4.183426837046588354e+00 -5.766959372843494691e+00
4.263877353143637805e+00 -5.822332796955506318e+00
4.344327869240687257e+00 -5.870876487674147270e+00
4.424778385337737596e+00 -5.900237635373792422e+00
4.505228901434787048e+00 -5.915317347853852326e+00
4.585679417531836499e+00 -5.973292570272791480e+00
4.666129933628886839e+00 -6.008989473438503204e+00
4.746580449725936290e+00 -6.041751683803529893e+00
4.827030965822985742e+00 -6.069263687145247665e+00
4.907481481920036082e+00 -6.073405565133803918e+00
4.987931998017085533e+00 -5.972709293439702805e+00
5.068382514114135873e+00 -5.925347544337497219e+00
5.148833030211185324e+00 -5.972851423310471475e+00
5.229283546308234776e+00 -6.038768235853738453e+00
5.309734062405285115e+00 -5.977282446110081082e+00
5.390184578502334567e+00 -5.882312958921335877e+00
5.470635094599384018e+00 -5.788247178545462113e+00
5.551085610696433470e+00 -5.736643034928166074e+00
5.631536126793483810e+00 -5.778059985295088907e+00
5.711986642890533261e+00 -5.838222690260892023e+00
5.792437158987582713e+00 -5.881504446990492241e+00
5.872887675084633052e+00 -5.907548181979799473e+00
5.953338191181682504e+00 -5.959688895847136791e+00
6.033788707278731955e+00 -5.952605138501084525e+00
6.114239223375781407e+00 -5.957457312938904792e+00
6.194689739472831747e+00 -5.917763532112526370e+00
6.275140255569881198e+00 -5.876289880740937832e+00
6.355590771666931538e+00 -5.907392863743481826e+00
6.436041287763980989e+00 -5.964123739706293392e+00
6.516491803861030441e+00 -6.012870829288605279e+00
6.596942319958079892e+00 -5.995126059561044052e+00
6.677392836055131120e+00 -5.934090046070901181e+00
6.757843352152180572e+00 -5.934801618676426749e+00
6.838293868249230023e+00 -5.948829947028503540e+00
6.918744384346279475e+00 -5.955004701798371158e+00
6.999194900443328926e+00 -5.978609352119020670e+00
7.079645416540378378e+00 -5.985628718866084164e+00
7.160095932637429605e+00 -5.983776120720080804e+00
7.240546448734479057e+00 -6.003500366257829235e+00
7.320996964831528508e+00 -6.040229135333642141e+00
7.401447480928577960e+00 -6.088573521451595028e+00
7.481897997025627411e+00 -6.086396009632561110e+00
7.562348513122678639e+00 -6.082167355096734340e+00
7.642799029219728091e+00 -6.102594148787034101e+00
7.723249545316777542e+00 -6.153839299870943691e+00
7.803700061413826994e+00 -6.173510172831045750e+00
7.884150577510876445e+00 -6.103496815952365928e+00
7.964601093607927673e+00 -6.042741612738645074e+00
8.045051609704977125e+00 -6.073317669991110890e+00
8.125502125802025688e+00 -6.147347734190688584e+00
8.205952641899076028e+00 -6.199919595358672986e+00
8.286403157996124591e+00 -6.174624616765442831e+00
8.366853674093176707e+00 -6.111534500053613428e+00
8.447304190190225270e+00 -6.113893043740180389e+00
8.527754706287275610e+00 -6.130061047193962054e+00
8.608205222384324173e+00 -6.153522642786718677e+00
8.688655738481374513e+00 -6.182002808858282350e+00
8.769106254578423076e+00 -6.212960924927230622e+00
8.849556770675475192e+00 -6.176915515382412458e+00
8.930007286772523756e+00 -6.132082347114270249e+00
9.010457802869574095e+00 -6.074383272335182049e+00
9.090908318966622659e+00 -6.042073362875670206e+00
9.171358835063672998e+00 -6.090635938740867950e+00
9.251809351160723338e+00 -6.134254137022501219e+00
9.332259867257773678e+00 -6.228290310174163125e+00
9.412710383354822241e+00 -6.324667501868170838e+00
9.493160899451872581e+00 -6.305395607413729842e+00
9.573611415548921144e+00 -6.233353365924484635e+00
9.654061931645971484e+00 -6.199412373020273037e+00
9.734512447743021823e+00 -6.225392009600659193e+00
9.814962963840072163e+00 -6.245170965214819070e+00
9.895413479937120727e+00 -6.277168725196620613e+00
9.975863996034171066e+00 -6.253794360460759982e+00
1.005631451213121963e+01 -6.276738138674457623e+00
1.013676502822827175e+01 -6.318482621579387448e+00
1.021721554432532031e+01 -6.375407284991680967e+00
1.029766606042237065e+01 -6.426303721106643607e+00
