0.000000000000000000e+00 -1.549019599857431873e-01
8.045051609704977069e-02 -3.954556985618548626e-01
1.609010321940995414e-01 -1.344922266513352227e+00
2.413515482911492982e-01 -5.095197856114348944e+00
3.218020643881990828e-01 -6.066872538625371014e+00
4.022525804852488118e-01 -5.484317445056537288e+00
4.827030965822985964e-01 -5.350085000368403065e+00
5.631536126793483810e-01 -5.427421990947867592e+00
6.436041287763981655e-01 -5.546863104288073387e+00
7.240546448734478391e-01 -5.667807441292076476e+00
8.045051609704976237e-01 -5.805234020782505056e+00
8.849556770675472972e-01 -5.971479760937766557e+00
9.654061931645971928e-01 -6.028711289037254062e+00
1.045856709261647088e+00 -6.068153079743813016e+00
1.126307225358696762e+00 -6.064517698237692933e+00
1.206757741455746435e+00 -6.033265509397210735e+00
1.287208257552796331e+00 -6.043778675481954465e+00
1.367658773649846005e+00 -6.039095792051660361e+00
1.448109289746895678e+00 -5.907480378070371962e+00
1.528559805843945352e+00 -5.769945589921364082e+00
1.609010321940995247e+00 -5.749362018644283978e+00
1.689460838038045143e+00 -5.778197988881794700e+00
1.769911354135094594e+00 -5.855504126271724452e+00
1.850361870232144490e+00 -5.888494081631240995e+00
1.930812386329194386e+00 -5.818744542951399978e+00
2.011262902426244281e+00 -5.800886276201536518e+00
2.091713418523294177e+00 -5.739108816721259387e+00
2.172163934620343628e+00 -5.719626046034843370e+00
2.252614450717393524e+00 -5.665700457076278340e+00
2.333064966814443419e+00 -5.599412979058961071e+00
2.413515482911492871e+00 -5.572862584103451589e+00
2.493965999008542767e+00 -5.601686018362359576e+00
2.574416515105592662e+00 -5.637742753889225078e+00
2.654867031202642558e+00 -5.745074242327902425e+00
2.735317547299692009e+00 -5.866201790344855560e+00
2.815768063396741905e+00 -5.874869300400226813e+00
2.896218579493791356e+00 -5.790476826489940443e+00
2.976669095590841252e+00 -5.795631628437035054e+00
3.057119611687890703e+00 -5.847375731332425275e+00
3.137570127784940599e+00 -5.824687724997609450e+00
3.218020643881990495e+00 -5.798006386576116888e+00
3.298471159979039946e+00 -5.782902085829046968e+00
3.378921676076090286e+00 -5.794360960056399001e+00
3.459372192173139737e+00 -5.860081574384593317e+00
3.539822708270189189e+00 -5.871848055271790656e+00
3.620273224367239528e+00 -5.812554100416289060e+00
3.700723740464288980e+00 -5.699641904442069418e+00
3.781174256561339320e+00 -5.682167655105747173e+00
3.861624772658388771e+00 -5.714358348016763678e+00
3.942075288755438223e+00 -5.674555605286726312e+00
4.022525804852488562e+00 -5.674363198412160969e+00
4.102976320949538014e+00 -5.734658050565808018e+00
4.183426837046588354e+00 -5.820518926250049851e+00
4.263877353143637805e+00 -5.865099597788483443e+00
4.344327869240687257e+00 -5.869772619057724405e+00
4.424778385337737596e+00 -5.884881855954190222e+00
4.505228901434787048e+00 -5.915245007013935741e+00
4.585679417531836499e+00 -5.898755963458299334e+00
4.666129933628886839e+00 -5.886828922607096892e+00
4.746580449725936290e+00 -5.910765469575342657e+00
4.827030965822985742e+00 -5.959651571985723706e+00
4.907481481920036082e+00 -5.981729295354784703e+00
4.987931998017085533e+00 -6.011393058823718327e+00
5.068382514114135873e+00 -5.998140855688446571e+00
5.148833030211185324e+00 -5.936072543569025584e+00
5.229283546308234776e+00 -5.881722434687037371e+00
5.309734062405285115e+00 -5.885922603875310521e+00
5.390184578502334567e+00 -5.920641609870895827e+00
5.470635094599384018e+00 -5.910121512016178080e+00
5.551085610696433470e+00 -5.873975908063381546e+00
5.631536126793483810e+00 -5.822312417449502675e+00
5.711986642890533261e+00 -5.866050333802139249e+00
5.792437158987582713e+00 -5.963068888570035142e+00
5.872887675084633052e+00 -5.975425992569712186e+00
5.953338191181682504e+00 -5.902726573899872875e+00
6.033788707278731955e+00 -5.835789929221766315e+00
6.114239223375781407e+00 -5.871392875806150435e+00
6.194689739472831747e+00 -5.940910072136289521e+00
6.275140255569881198e+00 -5.960495067271262215e+00
6.355590771666931538e+00 -5.930591801202956148e+00
6.436041287763980989e+00 -5.947647387543454123e+00
6.516491803861030441e+00 -5.979744299763245508e+00
6.596942319958079892e+00 -5.965738177371513018e+00
6.677392836055131120e+00 -5.974701264573225146e+00
6.757843352152180572e+00 -6.019819258453942723e+00
6.838293868249230023e+00 -6.039706065301681193e+00
6.918744384346279475e+00 -6.014606236221859525e+00
6.999194900443328926e+00 -6.030704044955680132e+00
7.079645416540378378e+00 -6.105993045388225404e+00
7.160095932637429605e+00 -6.127575490507508604e+00
7.240546448734479057e+00 -6.091979637161390571e+00
7.320996964831528508e+00 -6.045045252348363540e+00
7.401447480928577960e+00 -5.994252306727179125e+00
7.481897997025627411e+00 -5.997126259170821427e+00
7.562348513122678639e+00 -6.054852404683551015e+00
7.642799029219728091e+00 -6.055820478197538215e+00
7.723249545316777542e+00 -6.091165663530595964e+00
7.803700061413826994e+00 -6.111623548090631353e+00
7.884150577510876445e+00 -6.080640826145189415e+00
7.964601093607927673e+00 -6.037907237465115706e+00
8.045051609704977125e+00 -6.131741497173570643e+00
8.125502125802025688e+00 -6.212308487580602723e+00
8.205952641899076028e+00 -6.160288064332554825e+00
8.286403157996124591e+00 -6.078824082854503708e+00
8.366853674093176707e+00 -6.041301505106247305e+00
8.447304190190225270e+00 -6.074733809974953935e+00
8.527754706287275610e+00 -6.121006896684630938e+00
8.608205222384324173e+00 -6.141468688110980345e+00
8.688655738481374513e+00 -6.152665196430167072e+00
8.769106254578423076e+00 -6.118193463902612983e+00
8.849556770675475192e+00 -6.034097207975225530e+00
8.930007286772523756e+00 -5.991173364337209151e+00
9.010457802869574095e+00 -6.033855586457021580e+00
9.090908318966622659e+00 -6.096612831517767894e+00
9.171358835063672998e+00 -6.113787916509046738e+00
9.251809351160723338e+00 -6.125672584192781933e+00
9.332259867257773678e+00 -6.170263382957299036e+00
9.412710383354822241e+00 -6.152627340170125692e+00
9.493160899451872581e+00 -6.120340726277197163e+00
9.573611415548921144e+00 -6.133907226743565033e+00
9.654061931645971484e+00 -6.163675656594857166e+00
9.734512447743021823e+00 -6.178070443176289395e+00
9.814962963840072163e+00 -6.211511262823194102e+00
9.895413479937120727e+00 -6.228060849012321043e+00
9.975863996034171066e+00 -6.188470942639423100e+00
1.005631451213121963e+01 -6.156369225204899820e+00
1.013676502822827175e+01 -6.153622192469032193e+00
1.021721554432532031e+01 -6.218753499290136766e+00
1.029766606042237065e+01 -6.287467188681210573e+00
