0.000000000000000000e+00 -1.549019599857431873e-01
8.045051609704977069e-02 -2.121958643161231672e-01
1.609010321940995414e-01 -6.082591399960253220e-01
2.413515482911492982e-01 -2.612355679965889799e+00
3.218020643881990828e-01 -3.197745050264761080e+00
4.022525804852488118e-01 -3.017835947976818645e+00
4.827030965822985964e-01 -2.984110570034794740e+00
5.631536126793483810e-01 -2.846332397872358477e+00
6.436041287763981655e-01 -2.825894328442882131e+00
7.240546448734478391e-01 -2.904233383658278544e+00
8.045051609704976237e-01 -3.006099040187173888e+00
8.849556770675472972e-01 -3.070226370027467233e+00
9.654061931645971928e-01 -3.098170221871652696e+00
1.045856709261647088e+00 -3.111759288876669416e+00
1.126307225358696762e+00 -3.126077274746306589e+00
1.206757741455746435e+00 -3.092638362588037815e+00
1.287208257552796331e+00 -3.039585443072001070e+00
1.367658773649846005e+00 -3.014072207470034126e+00
1.448109289746895678e+00 -3.017132898136147823e+00
1.528559805843945352e+00 -2.985219777814397624e+00
1.609010321940995247e+00 -2.958892822147404900e+00
1.689460838038045143e+00 -2.939188316313648297e+00
1.769911354135094594e+00 -2.923302604251444947e+00
1.850361870232144490e+00 -2.940001377306550534e+00
1.930812386329194386e+00 -2.968440115246520516e+00
2.011262902426244281e+00 -2.995105226331977288e+00
2.091713418523294177e+00 -2.974177256000543945e+00
2.172163934620343628e+00 -2.955863133251237507e+00
2.252614450717393524e+00 -2.942850653474691214e+00
2.333064966814443419e+00 -2.923004335751020477e+00
2.413515482911492871e+00 -2.891394971596118246e+00
2.493965999008542767e+00 -2.854268576788133061e+00
2.574416515105592662e+00 -2.850523150781123505e+00
2.654867031202642558e+00 -2.898907789814753944e+00
2.735317547299692009e+00 -2.982997058120496536e+00
2.815768063396741905e+00 -3.042179249517121153e+00
2.896218579493791356e+00 -3.069055513957763104e+00
2.976669095590841252e+00 -3.017476075771351685e+00
3.057119611687890703e+00 -2.913243683639087145e+00
3.137570127784940599e+00 -2.868060326341754784e+00
3.218020643881990495e+00 -2.908673168444165569e+00
3.298471159979039946e+00 -2.918487802341156012e+00
3.378921676076090286e+00 -2.876821637072616955e+00
3.459372192173139737e+00 -2.845747563428997040e+00
3.539822708270189189e+00 -2.879553444970753162e+00
3.620273224367239528e+00 -2.930557801687109887e+00
3.700723740464288980e+00 -2.958442024550887783e+00
3.781174256561339320e+00 -2.983652835628288535e+00
3.861624772658388771e+00 -2.968582275212421351e+00
3.942075288755438223e+00 -2.956097654486280479e+00
4.022525804852488562e+00 -2.968077809392482447e+00
4.102976320949538014e+00 -2.983151961395701157e+00
4.183426837046588354e+00 -2.967140205880726356e+00
4.263877353143637805e+00 -2.933910606246816322e+00
4.344327869240687257e+00 -2.939596670830948888e+00
4.424778385337737596e+00 -2.960766315585570574e+00
4.505228901434787048e+00 -2.944520831446248543e+00
4.585679417531836499e+00 -2.941127377946057386e+00
4.666129933628886839e+00 -2.937109753651671262e+00
4.746580449725936290e+00 -2.946618342592978390e+00
4.827030965822985742e+00 -2.967828010382279835e+00
4.907481481920036082e+00 -2.993907304587718254e+00
4.987931998017085533e+00 -3.011635527871444395e+00
5.068382514114135873e+00 -3.015833376203674643e+00
5.148833030211185324e+00 -3.006313758536380387e+00
5.229283546308234776e+00 -3.004651929437962110e+00
5.309734062405285115e+00 -3.035942244961123748e+00
5.390184578502334567e+00 -3.049821041126481891e+00
5.470635094599384018e+00 -3.042585403163908797e+00
5.551085610696433470e+00 -3.016717692721636812e+00
5.631536126793483810e+00 -2.975951406885472661e+00
5.711986642890533261e+00 -2.978745197932693323e+00
5.792437158987582713e+00 -3.010381697031946135e+00
5.872887675084633052e+00 -2.979418666123976767e+00
5.953338191181682504e+00 -2.938390565295316836e+00
6.033788707278731955e+00 -2.919143324996520850e+00
6.114239223375781407e+00 -2.933687943983787072e+00
6.194689739472831747e+00 -2.933661250746597116e+00
6.275140255569881198e+00 -2.942598426800386857e+00
6.355590771666931538e+00 -2.975556244504423908e+00
6.436041287763980989e+00 -3.012368577880991438e+00
6.516491803861030441e+00 -3.021249869905840324e+00
6.596942319958079892e+00 -3.008320215003030373e+00
6.677392836055131120e+00 -2.981426772831025751e+00
6.757843352152180572e+00 -2.970018170208184038e+00
6.838293868249230023e+00 -2.966054006648326080e+00
6.918744384346279475e+00 -2.976489805094871599e+00
6.999194900443328926e+00 -2.979736664865699769e+00
7.079645416540378378e+00 -2.993158092291506645e+00
7.160095932637429605e+00 -3.044545564423101869e+00
7.240546448734479057e+00 -3.080434176047083028e+00
7.320996964831528508e+00 -3.045129797746862543e+00
7.401447480928577960e+00 -3.027526191877868200e+00
7.481897997025627411e+00 -3.024553356238486312e+00
7.562348513122678639e+00 -3.019321263455292836e+00
7.642799029219728091e+00 -3.000471981730873594e+00
7.723249545316777542e+00 -2.986857892012976023e+00
7.803700061413826994e+00 -3.020879991790312413e+00
7.884150577510876445e+00 -3.056454191584700553e+00
7.964601093607927673e+00 -3.068458532041310249e+00
8.045051609704977125e+00 -3.065637451346854725e+00
8.125502125802025688e+00 -3.100663874970258860e+00
8.205952641899076028e+00 -3.128918209004290407e+00
8.286403157996124591e+00 -3.131923448892225625e+00
8.366853674093176707e+00 -3.093196803365978909e+00
8.447304190190225270e+00 -3.058533400282125836e+00
8.527754706287275610e+00 -3.034270749651215127e+00
8.608205222384324173e+00 -3.041932715285451838e+00
8.688655738481374513e+00 -3.069439358989368927e+00
8.769106254578423076e+00 -3.110282875626706911e+00
8.849556770675475192e+00 -3.113373676289648895e+00
8.930007286772523756e+00 -3.089231011593084553e+00
9.010457802869574095e+00 -3.069016554141947406e+00
9.090908318966622659e+00 -3.078130028828944376e+00
9.171358835063672998e+00 -3.099575385553735352e+00
9.251809351160723338e+00 -3.112385324371075512e+00
9.332259867257773678e+00 -3.125870411846791708e+00
9.412710383354822241e+00 -3.137219538013342301e+00
9.493160899451872581e+00 -3.128786064106026554e+00
9.573611415548921144e+00 -3.117564624486360625e+00
9.654061931645971484e+00 -3.115410340528803168e+00
9.734512447743021823e+00 -3.130526354643513365e+00
9.814962963840072163e+00 -3.136202545861004332e+00
9.895413479937120727e+00 -3.131861572947930661e+00
9.975863996034171066e+00 -3.137685130848602455e+00
1.005631451213121963e+01 -3.152739996675223200e+00
1.013676502822827175e+01 -3.141850033618883042e+00
1.021721554432532031e+01 -3.122728834817894317e+00
1.029766606042237065e+01 -3.117145714145187707e+00
