0.000000000000000000e+00 -1.549019599857431873e-01
8.045051609704977069e-02 -1.999228863005115819e-01
1.609010321940995414e-01 -5.762397438565335372e-01
2.413515482911492982e-01 -2.392675498176908722e+00
3.218020643881990828e-01 -3.306602482731625159e+00
4.022525804852488118e-01 -2.922366244444647432e+00
4.827030965822985964e-01 -2.891302928639629233e+00
5.631536126793483810e-01 -2.913285678528179989e+00
6.436041287763981655e-01 -2.893487932457409872e+00
7.240546448734478391e-01 -2.984577989286139488e+00
8.045051609704976237e-01 -3.049024215291126438e+00
8.849556770675472972e-01 -2.941158970054934318e+00
9.654061931645971928e-01 -2.885054442615261117e+00
1.045856709261647088e+00 -2.962294430256863897e+00
1.126307225358696762e+00 -3.077337765974529127e+00
1.206757741455746435e+00 -3.142878172422043814e+00
1.287208257552796331e+00 -3.148951074932826000e+00
1.367658773649846005e+00 -3.054897229954664173e+00
1.448109289746895678e+00 -2.950647649981449572e+00
1.528559805843945352e+00 -2.897399142193602284e+00
1.609010321940995247e+00 -2.910998196278974604e+00
1.689460838038045143e+00 -2.964236200982912184e+00
1.769911354135094594e+00 -2.947966166924615106e+00
1.850361870232144490e+00 -2.913991032130880399e+00
1.930812386329194386e+00 -2.835663072715909117e+00
2.011262902426244281e+00 -2.800459608938621781e+00
2.091713418523294177e+00 -2.798524078386798397e+00
2.172163934620343628e+00 -2.809067928075358989e+00
2.252614450717393524e+00 -2.829872566859433114e+00
2.333064966814443419e+00 -2.800555416336899306e+00
2.413515482911492871e+00 -2.773258948575167082e+00
2.493965999008542767e+00 -2.790520820050999884e+00
2.574416515105592662e+00 -2.823565808489786555e+00
2.654867031202642558e+00 -2.820676275494557572e+00
2.735317547299692009e+00 -2.845337283642554560e+00
2.815768063396741905e+00 -2.918592901015107710e+00
2.896218579493791356e+00 -2.981070985722631850e+00
2.976669095590841252e+00 -3.013963290886298996e+00
3.057119611687890703e+00 -3.032178704578198492e+00
3.137570127784940599e+00 -3.018425957725493713e+00
3.218020643881990495e+00 -3.003489708107653922e+00
3.298471159979039946e+00 -2.967392695441986916e+00
3.378921676076090286e+00 -2.922050700268935319e+00
3.459372192173139737e+00 -2.892370980492626309e+00
3.539822708270189189e+00 -2.867010816800836803e+00
3.620273224367239528e+00 -2.842653183863213417e+00
3.700723740464288980e+00 -2.842203505489240722e+00
3.781174256561339320e+00 -2.883914526798581957e+00
3.861624772658388771e+00 -2.904610598224302009e+00
3.942075288755438223e+00 -2.904222787572838360e+00
4.022525804852488562e+00 -2.906406135801064217e+00
4.102976320949538014e+00 -2.934433501959689661e+00
4.183426837046588354e+00 -2.942933991775416036e+00
4.263877353143637805e+00 -2.930406915427108405e+00
4.344327869240687257e+00 -2.912287277967409160e+00
4.424778385337737596e+00 -2.928745940913498380e+00
4.505228901434787048e+00 -2.959033375313769643e+00
4.585679417531836499e+00 -2.989590693324767567e+00
4.666129933628886839e+00 -3.028203979123023082e+00
4.746580449725936290e+00 -3.008575761075352961e+00
4.827030965822985742e+00 -2.959045057359031450e+00
4.907481481920036082e+00 -2.935265841297379552e+00
4.987931998017085533e+00 -2.927665345261611929e+00
5.068382514114135873e+00 -2.901147362926507878e+00
5.148833030211185324e+00 -2.868770705635482976e+00
5.229283546308234776e+00 -2.848441588927375090e+00
5.309734062405285115e+00 -2.854771987789681997e+00
5.390184578502334567e+00 -2.868613912833029911e+00
5.470635094599384018e+00 -2.904466070694247115e+00
5.551085610696433470e+00 -2.933993992434097198e+00
5.631536126793483810e+00 -2.930679594823472733e+00
5.711986642890533261e+00 -2.919916636399222387e+00
5.792437158987582713e+00 -2.951383212625775077e+00
5.872887675084633052e+00 -2.964621730422440482e+00
5.953338191181682504e+00 -2.965037940823150642e+00
6.033788707278731955e+00 -2.963530017759006707e+00
6.114239223375781407e+00 -2.970033423633533065e+00
6.194689739472831747e+00 -2.961779022442596609e+00
6.275140255569881198e+00 -2.963995669830744806e+00
6.355590771666931538e+00 -2.963855498636029484e+00
6.436041287763980989e+00 -2.971172323536160675e+00
6.516491803861030441e+00 -2.971814706437804432e+00
6.596942319958079892e+00 -2.973677817518681987e+00
6.677392836055131120e+00 -2.978173349247482893e+00
6.757843352152180572e+00 -3.015791313817841601e+00
6.838293868249230023e+00 -3.040603094956560337e+00
6.918744384346279475e+00 -3.037925509799054957e+00
6.999194900443328926e+00 -3.043208243310987271e+00
7.079645416540378378e+00 -3.080829310080612338e+00
7.160095932637429605e+00 -3.085868601190136840e+00
7.240546448734479057e+00 -3.023796184596375891e+00
7.320996964831528508e+00 -2.965554260095865757e+00
7.401447480928577960e+00 -2.947542929982163162e+00
7.481897997025627411e+00 -2.975927952558786949e+00
7.562348513122678639e+00 -2.995421134748837311e+00
7.642799029219728091e+00 -2.998028178417623923e+00
7.723249545316777542e+00 -3.017147912822720102e+00
7.803700061413826994e+00 -3.037805550899232987e+00
7.884150577510876445e+00 -3.042237584078533619e+00
7.964601093607927673e+00 -3.022727981303753531e+00
8.045051609704977125e+00 -2.989121670174963885e+00
8.125502125802025688e+00 -2.965314109196186987e+00
8.205952641899076028e+00 -2.979541636517496705e+00
8.286403157996124591e+00 -3.014453325936477857e+00
8.366853674093176707e+00 -3.052605022662550738e+00
8.447304190190225270e+00 -3.067596223739341266e+00
8.527754706287275610e+00 -3.052060975569551360e+00
8.608205222384324173e+00 -3.028434752308842626e+00
8.688655738481374513e+00 -3.014793516389280725e+00
8.769106254578423076e+00 -3.016409831981220258e+00
8.849556770675475192e+00 -3.003975230367811111e+00
8.930007286772523756e+00 -3.016809974794285143e+00
9.010457802869574095e+00 -3.053230587317158573e+00
9.090908318966622659e+00 -3.081263776099752327e+00
9.171358835063672998e+00 -3.086834530689257505e+00
9.251809351160723338e+00 -3.105043954716340870e+00
9.332259867257773678e+00 -3.113439613874017020e+00
9.412710383354822241e+00 -3.086555541052997231e+00
9.493160899451872581e+00 -3.081129542941854815e+00
9.573611415548921144e+00 -3.091797957548961140e+00
9.654061931645971484e+00 -3.102602991199904903e+00
9.734512447743021823e+00 -3.125719358229799738e+00
9.814962963840072163e+00 -3.144134657666927346e+00
9.895413479937120727e+00 -3.152876948928556633e+00
9.975863996034171066e+00 -3.172525210927311878e+00
1.005631451213121963e+01 -3.166713397802285446e+00
1.013676502822827175e+01 -3.138491900999124784e+00
1.021721554432532031e+01 -3.115527719691819186e+00
1.029766606042237065e+01 -3.111717418468703311e+00
