0.000000000000000000e+00 -1.549019599857431873e-01
8.045051609704977069e-02 -2.056372880380354928e-01
1.609010321940995414e-01 -5.458116487057594890e-01
2.413515482911492982e-01 -2.259584298727834728e+00
3.218020643881990828e-01 -3.375904936652526889e+00
4.022525804852488118e-01 -3.042423304630196501e+00
4.827030965822985964e-01 -2.886581423474598562e+00
5.631536126793483810e-01 -2.864715887525527194e+00
6.436041287763981655e-01 -2.962876936759144098e+00
7.240546448734478391e-01 -3.067550950205233384e+00
8.045051609704976237e-01 -3.104205535570016661e+00
8.849556770675472972e-01 -3.132034824056456834e+00
9.654061931645971928e-01 -3.108175099280634068e+00
1.045856709261647088e+00 -3.058264549933072729e+00
1.126307225358696762e+00 -3.030229317977930492e+00
1.206757741455746435e+00 -3.044868071335849358e+00
1.287208257552796331e+00 -3.046308935813430097e+00
1.367658773649846005e+00 -3.020165919687009204e+00
1.448109289746895678e+00 -2.935793495813010079e+00
1.528559805843945352e+00 -2.865346138926349262e+00
1.609010321940995247e+00 -2.871359630500130322e+00
1.689460838038045143e+00 -2.911636202194378686e+00
1.769911354135094594e+00 -2.909645473588071685e+00
1.850361870232144490e+00 -2.886684765164723387e+00
1.930812386329194386e+00 -2.859794505626405137e+00
2.011262902426244281e+00 -2.883242311150470361e+00
2.091713418523294177e+00 -2.896893172474534595e+00
2.172163934620343628e+00 -2.902358405896965809e+00
2.252614450717393524e+00 -2.910545238999127093e+00
2.333064966814443419e+00 -2.925959479765199767e+00
2.413515482911492871e+00 -2.937737175984266536e+00
2.493965999008542767e+00 -2.932487875183255266e+00
2.574416515105592662e+00 -2.938795113383534829e+00
2.654867031202642558e+00 -2.935463621213607155e+00
2.735317547299692009e+00 -2.962144143137773078e+00
2.815768063396741905e+00 -3.031586077245034705e+00
2.896218579493791356e+00 -3.051756806487440521e+00
2.976669095590841252e+00 -3.040352658946680720e+00
3.057119611687890703e+00 -3.012817867353835499e+00
3.137570127784940599e+00 -2.962620066004232555e+00
3.218020643881990495e+00 -2.905509458633304565e+00
3.298471159979039946e+00 -2.890415267443941172e+00
3.378921676076090286e+00 -2.912550124116552563e+00
3.459372192173139737e+00 -2.936439459418905162e+00
3.539822708270189189e+00 -2.929179904835255588e+00
3.620273224367239528e+00 -2.863855543159853134e+00
3.700723740464288980e+00 -2.826223644563365944e+00
3.781174256561339320e+00 -2.864442795542576636e+00
3.861624772658388771e+00 -2.952865002891399637e+00
3.942075288755438223e+00 -3.005006290553168480e+00
4.022525804852488562e+00 -3.007785197639095021e+00
4.102976320949538014e+00 -2.965078801026928002e+00
4.183426837046588354e+00 -2.917302321131793885e+00
4.263877353143637805e+00 -2.898167473932442562e+00
4.344327869240687257e+00 -2.942813264294016129e+00
4.424778385337737596e+00 -2.998049847526173206e+00
4.505228901434787048e+00 -3.003174397083130387e+00
4.585679417531836499e+00 -2.974152156347209974e+00
4.666129933628886839e+00 -2.991401418818401492e+00
4.746580449725936290e+00 -3.017181604177673560e+00
4.827030965822985742e+00 -3.048883397028490094e+00
4.907481481920036082e+00 -3.040198290152666072e+00
4.987931998017085533e+00 -3.001826182184483383e+00
5.068382514114135873e+00 -2.952941262030519542e+00
5.148833030211185324e+00 -2.919195604394801080e+00
5.229283546308234776e+00 -2.895186135096972091e+00
5.309734062405285115e+00 -2.905664544992633935e+00
5.390184578502334567e+00 -2.937427479184100410e+00
5.470635094599384018e+00 -2.964333757006096359e+00
5.551085610696433470e+00 -2.999406764231589584e+00
5.631536126793483810e+00 -3.008180112937670625e+00
5.711986642890533261e+00 -3.007890558219137755e+00
5.792437158987582713e+00 -3.004730117568111591e+00
5.872887675084633052e+00 -3.007761885622616926e+00
5.953338191181682504e+00 -3.009316673151768651e+00
6.033788707278731955e+00 -3.017759395754977980e+00
6.114239223375781407e+00 -3.021033206940769489e+00
6.194689739472831747e+00 -3.018257429057594532e+00
6.275140255569881198e+00 -2.995063747693114120e+00
6.355590771666931538e+00 -2.958831146719757221e+00
6.436041287763980989e+00 -2.940426568056775380e+00
6.516491803861030441e+00 -2.925628000428967201e+00
6.596942319958079892e+00 -2.918882313610191126e+00
6.677392836055131120e+00 -2.918537062754694489e+00
6.757843352152180572e+00 -2.925241828058362081e+00
6.838293868249230023e+00 -2.918828853339419549e+00
6.918744384346279475e+00 -2.912928230173633004e+00
6.999194900443328926e+00 -2.913630622167850515e+00
7.079645416540378378e+00 -2.936592344981735714e+00
7.160095932637429605e+00 -2.962151611506588900e+00
7.240546448734479057e+00 -2.979029323804148088e+00
7.320996964831528508e+00 -3.002390543278808277e+00
7.401447480928577960e+00 -3.011620708237885857e+00
7.481897997025627411e+00 -2.989649589878766722e+00
7.562348513122678639e+00 -2.953980347108838611e+00
7.642799029219728091e+00 -2.953486789318795047e+00
7.723249545316777542e+00 -2.985533696910445567e+00
7.803700061413826994e+00 -3.020005741179494496e+00
7.884150577510876445e+00 -3.050616914896452592e+00
7.964601093607927673e+00 -3.048408761476297357e+00
8.045051609704977125e+00 -3.044644728967632386e+00
8.125502125802025688e+00 -3.041903053356732833e+00
8.205952641899076028e+00 -3.032861144248014451e+00
8.286403157996124591e+00 -3.011235113238285077e+00
8.366853674093176707e+00 -3.006117108437889485e+00
8.447304190190225270e+00 -3.027943332934194931e+00
8.527754706287275610e+00 -3.063344787480068998e+00
8.608205222384324173e+00 -3.094368001265928037e+00
8.688655738481374513e+00 -3.112466678886613991e+00
8.769106254578423076e+00 -3.108210924258377528e+00
8.849556770675475192e+00 -3.100309776746409618e+00
8.930007286772523756e+00 -3.083379784652003686e+00
9.010457802869574095e+00 -3.053158797785445522e+00
9.090908318966622659e+00 -3.064172735074937926e+00
9.171358835063672998e+00 -3.082403943339858010e+00
9.251809351160723338e+00 -3.077495852243587571e+00
9.332259867257773678e+00 -3.063304409531415029e+00
9.412710383354822241e+00 -3.051043765967428989e+00
9.493160899451872581e+00 -3.040390318226326993e+00
9.573611415548921144e+00 -3.057020744224169029e+00
9.654061931645971484e+00 -3.084454804773395953e+00
9.734512447743021823e+00 -3.115355105607170660e+00
9.814962963840072163e+00 -3.132533851827121740e+00
9.895413479937120727e+00 -3.157976421706050196e+00
9.975863996034171066e+00 -3.166971520711324928e+00
1.005631451213121963e+01 -3.156452839153541579e+00
1.013676502822827175e+01 -3.145577083277242725e+00
1.021721554432532031e+01 -3.154954874619705141e+00
1.029766606042237065e+01 -3.155050649544172359e+00
