0.000000000000000000e+00 -1.549019599857431873e-01
8.045051609704977069e-02 -1.979469500289310346e-01
1.609010321940995414e-01 -5.418804743115563927e-01
2.413515482911492982e-01 -1.242284952148052568e+00
3.218020643881990828e-01 -1.560604087716824795e+00
4.022525804852488118e-01 -2.043131628254951870e+00
4.827030965822985964e-01 -2.590171538724322264e+00
5.631536126793483810e-01 -2.989615494779362503e+00
6.436041287763981655e-01 -3.267578510668341707e+00
7.240546448734478391e-01 -3.576199410091284392e+00
8.045051609704976237e-01 -3.775673211746565006e+00
8.849556770675472972e-01 -3.809976183519382609e+00
9.654061931645971928e-01 -3.821500100292885449e+00
1.045856709261647088e+00 -3.814524477457156504e+00
1.126307225358696762e+00 -3.781141297324986716e+00
1.206757741455746435e+00 -3.720171526788179861e+00
1.287208257552796331e+00 -3.693208255095777215e+00
1.367658773649846005e+00 -3.631819192628816140e+00
1.448109289746895678e+00 -3.559868381377595536e+00
1.528559805843945352e+00 -3.544130102315122599e+00
1.609010321940995247e+00 -3.507449874667106116e+00
1.689460838038045143e+00 -3.457549672784298256e+00
1.769911354135094594e+00 -3.395346310732886508e+00
1.850361870232144490e+00 -3.387140169274141410e+00
1.930812386329194386e+00 -3.383199454491517599e+00
2.011262902426244281e+00 -3.330769904729394604e+00
2.091713418523294177e+00 -3.225546119305831905e+00
2.172163934620343628e+00 -3.165568255969014810e+00
2.252614450717393524e+00 -3.158811222098977911e+00
2.333064966814443419e+00 -3.196113728850188629e+00
2.413515482911492871e+00 -3.215743149843527160e+00
2.493965999008542767e+00 -3.200776782167015888e+00
2.574416515105592662e+00 -3.261594044104199508e+00
2.654867031202642558e+00 -3.361122071878432926e+00
2.735317547299692009e+00 -3.357162790759773863e+00
2.815768063396741905e+00 -3.228997707906470893e+00
2.896218579493791356e+00 -3.161608454095798937e+00
2.976669095590841252e+00 -3.202334462049958308e+00
3.057119611687890703e+00 -3.252066941999614880e+00
3.137570127784940599e+00 -3.273941112495510897e+00
3.218020643881990495e+00 -3.270067253191643264e+00
3.298471159979039946e+00 -3.246930028870873119e+00
3.378921676076090286e+00 -3.229578577559515384e+00
3.459372192173139737e+00 -3.249133329599441566e+00
3.539822708270189189e+00 -3.244546230513071894e+00
3.620273224367239528e+00 -3.226050604858794468e+00
3.700723740464288980e+00 -3.208936190750916406e+00
3.781174256561339320e+00 -3.230704246529370494e+00
3.861624772658388771e+00 -3.262759651317776566e+00
3.942075288755438223e+00 -3.251943744914675971e+00
4.022525804852488562e+00 -3.216898715196913283e+00
4.102976320949538014e+00 -3.164245463581359719e+00
4.183426837046588354e+00 -3.127514436488241678e+00
4.263877353143637805e+00 -3.140590589281194500e+00
4.344327869240687257e+00 -3.182517914230351685e+00
4.424778385337737596e+00 -3.242795633283824142e+00
4.505228901434787048e+00 -3.272896340385653247e+00
4.585679417531836499e+00 -3.274593992481334759e+00
4.666129933628886839e+00 -3.238219794687487774e+00
4.746580449725936290e+00 -3.207959397538306057e+00
4.827030965822985742e+00 -3.205931759234664558e+00
4.907481481920036082e+00 -3.225638262892912778e+00
4.987931998017085533e+00 -3.241634202348989913e+00
5.068382514114135873e+00 -3.259959545176202234e+00
5.148833030211185324e+00 -3.261623695039080228e+00
5.229283546308234776e+00 -3.256629870455443498e+00
5.309734062405285115e+00 -3.249693234464190450e+00
5.390184578502334567e+00 -3.250837526230551333e+00
5.470635094599384018e+00 -3.260667588674792228e+00
5.551085610696433470e+00 -3.267355272731294669e+00
5.631536126793483810e+00 -3.275507503814575117e+00
5.711986642890533261e+00 -3.298773452379120119e+00
5.792437158987582713e+00 -3.316846608827722420e+00
5.872887675084633052e+00 -3.287588399093426261e+00
5.953338191181682504e+00 -3.258706825828978637e+00
6.033788707278731955e+00 -3.243226805672396296e+00
6.114239223375781407e+00 -3.249335324569849970e+00
6.194689739472831747e+00 -3.269045226456806397e+00
6.275140255569881198e+00 -3.269511916317412226e+00
6.355590771666931538e+00 -3.255603790065480840e+00
6.436041287763980989e+00 -3.263205269405091702e+00
6.516491803861030441e+00 -3.289532746898634841e+00
6.596942319958079892e+00 -3.302415290102345580e+00
6.677392836055131120e+00 -3.277224046855897743e+00
6.757843352152180572e+00 -3.245979087852605360e+00
6.838293868249230023e+00 -3.235353446315048398e+00
6.918744384346279475e+00 -3.236265324581908409e+00
6.999194900443328926e+00 -3.255280102332061443e+00
7.079645416540378378e+00 -3.294231398366477048e+00
7.160095932637429605e+00 -3.318269057268949496e+00
7.240546448734479057e+00 -3.292602574556681816e+00
7.320996964831528508e+00 -3.277974505013004247e+00
7.401447480928577960e+00 -3.284796025771082650e+00
7.481897997025627411e+00 -3.326695905812359744e+00
7.562348513122678639e+00 -3.354493838765329361e+00
7.642799029219728091e+00 -3.353113701949004710e+00
7.723249545316777542e+00 -3.339065210997206545e+00
7.803700061413826994e+00 -3.337219571985219346e+00
7.884150577510876445e+00 -3.342302566239610861e+00
7.964601093607927673e+00 -3.343403739473164826e+00
8.045051609704977125e+00 -3.345681543457058371e+00
8.125502125802025688e+00 -3.347687763136958594e+00
8.205952641899076028e+00 -3.361509029183397335e+00
8.286403157996124591e+00 -3.366940815932597530e+00
8.366853674093176707e+00 -3.382073643542809815e+00
8.447304190190225270e+00 -3.410248940565017151e+00
8.527754706287275610e+00 -3.404309160579928051e+00
8.608205222384324173e+00 -3.366911282529096106e+00
8.688655738481374513e+00 -3.346000785867333960e+00
8.769106254578423076e+00 -3.355473786137630920e+00
8.849556770675475192e+00 -3.351554817796164709e+00
8.930007286772523756e+00 -3.324768281216325505e+00
9.010457802869574095e+00 -3.316208143777227946e+00
9.090908318966622659e+00 -3.334891374796595809e+00
9.171358835063672998e+00 -3.349079776054903146e+00
9.251809351160723338e+00 -3.351529850129460808e+00
9.332259867257773678e+00 -3.334639984442980154e+00
9.412710383354822241e+00 -3.337947415974714005e+00
9.493160899451872581e+00 -3.364090253692183285e+00
9.573611415548921144e+00 -3.405957727184362405e+00
9.654061931645971484e+00 -3.428125431337834872e+00
9.734512447743021823e+00 -3.439864569039114084e+00
9.814962963840072163e+00 -3.449071405775953725e+00
9.895413479937120727e+00 -3.431113577445881191e+00
9.975863996034171066e+00 -3.395936410504420966e+00
1.005631451213121963e+01 -3.368919064697602828e+00
1.013676502822827175e+01 -3.355915194296281268e+00
1.021721554432532031e+01 -3.366508744264780084e+00
1.029766606042237065e+01 -3.366165737880806752e+00
