0.000000000000000000e+00 -1.549019599857431873e-01
8.045051609704977069e-02 -2.025493256818008680e-01
1.609010321940995414e-01 -5.145996902575717957e-01
2.413515482911492982e-01 -1.314739929980682120e+00
3.218020643881990828e-01 -1.814027744618850191e+00
4.022525804852488118e-01 -2.226761058337326737e+00
4.827030965822985964e-01 -2.643912587564999139e+00
5.631536126793483810e-01 -2.977065860222223748e+00
6.436041287763981655e-01 -3.305307532343306320e+00
7.240546448734478391e-01 -3.455443031796281428e+00
8.045051609704976237e-01 -3.595290975233329966e+00
8.849556770675472972e-01 -3.740375363428094069e+00
9.654061931645971928e-01 -3.862401752916761577e+00
1.045856709261647088e+00 -3.940959037161910317e+00
1.126307225358696762e+00 -3.973700256718790236e+00
1.206757741455746435e+00 -3.904331762560406371e+00
1.287208257552796331e+00 -3.797967249568229064e+00
1.367658773649846005e+00 -3.719359985401319069e+00
1.448109289746895678e+00 -3.663603347296774171e+00
1.528559805843945352e+00 -3.621588555848349600e+00
1.609010321940995247e+00 -3.584199993885501812e+00
1.689460838038045143e+00 -3.529838886722609370e+00
1.769911354135094594e+00 -3.485155907076995963e+00
1.850361870232144490e+00 -3.462997040604720134e+00
1.930812386329194386e+00 -3.389912471022961782e+00
2.011262902426244281e+00 -3.293206787666689284e+00
2.091713418523294177e+00 -3.236328878044778978e+00
2.172163934620343628e+00 -3.226501348529786206e+00
2.252614450717393524e+00 -3.201979514231539259e+00
2.333064966814443419e+00 -3.154164893752167131e+00
2.413515482911492871e+00 -3.144206602059941957e+00
2.493965999008542767e+00 -3.165240072328686427e+00
2.574416515105592662e+00 -3.213497952050161199e+00
2.654867031202642558e+00 -3.245171701007268261e+00
2.735317547299692009e+00 -3.274766632880274475e+00
2.815768063396741905e+00 -3.273257604047362879e+00
2.896218579493791356e+00 -3.228357459887003511e+00
2.976669095590841252e+00 -3.193538501666784768e+00
3.057119611687890703e+00 -3.193809338173949186e+00
3.137570127784940599e+00 -3.226461980637048033e+00
3.218020643881990495e+00 -3.212975779836249046e+00
3.298471159979039946e+00 -3.211019589451504785e+00
3.378921676076090286e+00 -3.259336732277147597e+00
3.459372192173139737e+00 -3.297126457245350473e+00
3.539822708270189189e+00 -3.290174353810743302e+00
3.620273224367239528e+00 -3.282194883531656782e+00
3.700723740464288980e+00 -3.290961110001171530e+00
3.781174256561339320e+00 -3.295226111949049574e+00
3.861624772658388771e+00 -3.297340824440576412e+00
3.942075288755438223e+00 -3.299918204765044827e+00
4.022525804852488562e+00 -3.302941892373907784e+00
4.102976320949538014e+00 -3.267154893806670124e+00
4.183426837046588354e+00 -3.252305069249519232e+00
4.263877353143637805e+00 -3.247523411678034044e+00
4.344327869240687257e+00 -3.242070226088221485e+00
4.424778385337737596e+00 -3.239752686633083467e+00
4.505228901434787048e+00 -3.237766577960885961e+00
4.585679417531836499e+00 -3.234807866810921695e+00
4.666129933628886839e+00 -3.263061154248708018e+00
4.746580449725936290e+00 -3.306555949382330883e+00
4.827030965822985742e+00 -3.307343571997831244e+00
4.907481481920036082e+00 -3.240393021549196728e+00
4.987931998017085533e+00 -3.214950158677178482e+00
5.068382514114135873e+00 -3.229548914511915836e+00
5.148833030211185324e+00 -3.254592615202989592e+00
5.229283546308234776e+00 -3.262726205238254629e+00
5.309734062405285115e+00 -3.263944710684305583e+00
5.390184578502334567e+00 -3.276713009928621023e+00
5.470635094599384018e+00 -3.274164374025958058e+00
5.551085610696433470e+00 -3.269977020482891739e+00
5.631536126793483810e+00 -3.274832342717425959e+00
5.711986642890533261e+00 -3.303547767573494998e+00
5.792437158987582713e+00 -3.328564707342447804e+00
5.872887675084633052e+00 -3.339973955052426113e+00
5.953338191181682504e+00 -3.337413265972329679e+00
6.033788707278731955e+00 -3.338458518419459953e+00
6.114239223375781407e+00 -3.317770311353152035e+00
6.194689739472831747e+00 -3.298443442942915915e+00
6.275140255569881198e+00 -3.286635006628932931e+00
6.355590771666931538e+00 -3.310473442408597755e+00
6.436041287763980989e+00 -3.347176177323608393e+00
6.516491803861030441e+00 -3.345525524104789206e+00
6.596942319958079892e+00 -3.310381814412809653e+00
6.677392836055131120e+00 -3.257577917591150563e+00
6.757843352152180572e+00 -3.238440505624737842e+00
6.838293868249230023e+00 -3.265701667874626235e+00
6.918744384346279475e+00 -3.311292478240728698e+00
6.999194900443328926e+00 -3.324431337220680849e+00
7.079645416540378378e+00 -3.306249068834746119e+00
7.160095932637429605e+00 -3.284372997350985202e+00
7.240546448734479057e+00 -3.294702308952090597e+00
7.320996964831528508e+00 -3.310155047312167920e+00
7.401447480928577960e+00 -3.299496472099148647e+00
7.481897997025627411e+00 -3.291711601323307423e+00
7.562348513122678639e+00 -3.297813703489034687e+00
7.642799029219728091e+00 -3.315829102603237377e+00
7.723249545316777542e+00 -3.336810766666431505e+00
7.803700061413826994e+00 -3.343291362683382673e+00
7.884150577510876445e+00 -3.351261911608616195e+00
7.964601093607927673e+00 -3.357473809522824038e+00
8.045051609704977125e+00 -3.356567715198435664e+00
8.125502125802025688e+00 -3.345056998137025506e+00
8.205952641899076028e+00 -3.338018819564563255e+00
8.286403157996124591e+00 -3.332404853258364774e+00
8.366853674093176707e+00 -3.337531008137589961e+00
8.447304190190225270e+00 -3.361090768656489480e+00
8.527754706287275610e+00 -3.377419728411101829e+00
8.608205222384324173e+00 -3.381421914276347973e+00
8.688655738481374513e+00 -3.384454744844680008e+00
8.769106254578423076e+00 -3.409770022075137241e+00
8.849556770675475192e+00 -3.415614486044530995e+00
8.930007286772523756e+00 -3.390201425835575488e+00
9.010457802869574095e+00 -3.381041422554520004e+00
9.090908318966622659e+00 -3.387104256168395722e+00
9.171358835063672998e+00 -3.377892380483827672e+00
9.251809351160723338e+00 -3.359234740255108598e+00
9.332259867257773678e+00 -3.347938197261234095e+00
9.412710383354822241e+00 -3.353030866847587443e+00
9.493160899451872581e+00 -3.368831174323305699e+00
9.573611415548921144e+00 -3.379815362949847746e+00
9.654061931645971484e+00 -3.378865630528570030e+00
9.734512447743021823e+00 -3.392893015363678266e+00
9.814962963840072163e+00 -3.424662955632967964e+00
9.895413479937120727e+00 -3.426894281238715756e+00
9.975863996034171066e+00 -3.392112336592737698e+00
1.005631451213121963e+01 -3.382849035036121776e+00
1.013676502822827175e+01 -3.403441477995252651e+00
1.021721554432532031e+01 -3.425382327638662794e+00
1.029766606042237065e+01 -3.425784092072682085e+00
