0.000000000000000000e+00 -1.549019599857431873e-01
8.045051609704977069e-02 -1.996900290872918315e-01
1.609010321940995414e-01 -5.001791143242129145e-01
2.413515482911492982e-01 -1.114610708266806416e+00
3.218020643881990828e-01 -1.616265021401640745e+00
4.022525804852488118e-01 -2.357829166979018787e+00
4.827030965822985964e-01 -2.847275344738487757e+00
5.631536126793483810e-01 -3.041479518465048493e+00
6.436041287763981655e-01 -3.318035570048273986e+00
7.240546448734478391e-01 -3.465273881462139105e+00
8.045051609704976237e-01 -3.465744946159819762e+00
8.849556770675472972e-01 -3.505888898752692384e+00
9.654061931645971928e-01 -3.630308963032038427e+00
1.045856709261647088e+00 -3.697131824555382362e+00
1.126307225358696762e+00 -3.671613806579849371e+00
1.206757741455746435e+00 -3.623240250593480205e+00
1.287208257552796331e+00 -3.587388345375543963e+00
1.367658773649846005e+00 -3.604791816519667957e+00
1.448109289746895678e+00 -3.630522828975555338e+00
1.528559805843945352e+00 -3.633963997539985336e+00
1.609010321940995247e+00 -3.586503768983238416e+00
1.689460838038045143e+00 -3.474178777981760557e+00
1.769911354135094594e+00 -3.380921322989416833e+00
1.850361870232144490e+00 -3.330822424464242371e+00
1.930812386329194386e+00 -3.305844475364322133e+00
2.011262902426244281e+00 -3.267114774021552481e+00
2.091713418523294177e+00 -3.244501952573458858e+00
2.172163934620343628e+00 -3.230111884756241558e+00
2.252614450717393524e+00 -3.238600411722103889e+00
2.333064966814443419e+00 -3.222725761579435133e+00
2.413515482911492871e+00 -3.204258350822067669e+00
2.493965999008542767e+00 -3.184791148522650328e+00
2.574416515105592662e+00 -3.177589038359545981e+00
2.654867031202642558e+00 -3.188057058964238077e+00
2.735317547299692009e+00 -3.225162559916568306e+00
2.815768063396741905e+00 -3.224349030453545151e+00
2.896218579493791356e+00 -3.210687885832878674e+00
2.976669095590841252e+00 -3.200904219985319266e+00
3.057119611687890703e+00 -3.202384717393402802e+00
3.137570127784940599e+00 -3.234366566012595534e+00
3.218020643881990495e+00 -3.291677313288507101e+00
3.298471159979039946e+00 -3.277942193226344170e+00
3.378921676076090286e+00 -3.233239128769875403e+00
3.459372192173139737e+00 -3.184877665380668521e+00
3.539822708270189189e+00 -3.168370176141889427e+00
3.620273224367239528e+00 -3.197023181263614955e+00
3.700723740464288980e+00 -3.230548682572654151e+00
3.781174256561339320e+00 -3.219531397687977581e+00
3.861624772658388771e+00 -3.186325950497035375e+00
3.942075288755438223e+00 -3.213825655157890537e+00
4.022525804852488562e+00 -3.249134667298111179e+00
4.102976320949538014e+00 -3.255530558171133571e+00
4.183426837046588354e+00 -3.222488518201256369e+00
4.263877353143637805e+00 -3.175096836196210415e+00
4.344327869240687257e+00 -3.170919796452450701e+00
4.424778385337737596e+00 -3.207506034526425243e+00
4.505228901434787048e+00 -3.243141858411701328e+00
4.585679417531836499e+00 -3.248081752285695067e+00
4.666129933628886839e+00 -3.272217394292926240e+00
4.746580449725936290e+00 -3.284948640736646386e+00
4.827030965822985742e+00 -3.269236606743905593e+00
4.907481481920036082e+00 -3.250027641089599850e+00
4.987931998017085533e+00 -3.237778863449196187e+00
5.068382514114135873e+00 -3.220765161076139194e+00
5.148833030211185324e+00 -3.219927242978568582e+00
5.229283546308234776e+00 -3.250933778915086947e+00
5.309734062405285115e+00 -3.272592141186821291e+00
5.390184578502334567e+00 -3.260783462944233158e+00
5.470635094599384018e+00 -3.233915221396751694e+00
5.551085610696433470e+00 -3.216306629315560439e+00
5.631536126793483810e+00 -3.239244488014207946e+00
5.711986642890533261e+00 -3.262849504558019031e+00
5.792437158987582713e+00 -3.290667767210162076e+00
5.872887675084633052e+00 -3.283966483616229226e+00
5.953338191181682504e+00 -3.264847363644310718e+00
6.033788707278731955e+00 -3.270134440857598079e+00
6.114239223375781407e+00 -3.275213581814299779e+00
6.194689739472831747e+00 -3.287629160737155054e+00
6.275140255569881198e+00 -3.299551507956834051e+00
6.355590771666931538e+00 -3.303405135880315591e+00
6.436041287763980989e+00 -3.309392232651012566e+00
6.516491803861030441e+00 -3.313955527238130916e+00
6.596942319958079892e+00 -3.307945545959873890e+00
6.677392836055131120e+00 -3.301385774793546002e+00
6.757843352152180572e+00 -3.306986981698561756e+00
6.838293868249230023e+00 -3.339013580784208735e+00
6.918744384346279475e+00 -3.371470286752210832e+00
6.999194900443328926e+00 -3.365898560784894133e+00
7.079645416540378378e+00 -3.336077551925026086e+00
7.160095932637429605e+00 -3.332726057432771505e+00
7.240546448734479057e+00 -3.362050081780370459e+00
7.320996964831528508e+00 -3.400533113649794714e+00
7.401447480928577960e+00 -3.427412322969733083e+00
7.481897997025627411e+00 -3.417855348975375129e+00
7.562348513122678639e+00 -3.434446870778469663e+00
7.642799029219728091e+00 -3.421632928584955824e+00
7.723249545316777542e+00 -3.377857005326870610e+00
7.803700061413826994e+00 -3.325255856058614956e+00
7.884150577510876445e+00 -3.322926758303271111e+00
7.964601093607927673e+00 -3.317933083563291419e+00
8.045051609704977125e+00 -3.307076668851946621e+00
8.125502125802025688e+00 -3.325090340042673898e+00
8.205952641899076028e+00 -3.319043279076605124e+00
8.286403157996124591e+00 -3.320660071458862550e+00
8.366853674093176707e+00 -3.325865798683893093e+00
8.447304190190225270e+00 -3.339058552478575415e+00
8.527754706287275610e+00 -3.355221875850811664e+00
8.608205222384324173e+00 -3.357713659651473392e+00
8.688655738481374513e+00 -3.339328445275110635e+00
8.769106254578423076e+00 -3.331876089876837810e+00
8.849556770675475192e+00 -3.344153148177195334e+00
8.930007286772523756e+00 -3.345640794040547927e+00
9.010457802869574095e+00 -3.344068155400981901e+00
9.090908318966622659e+00 -3.350386402067475178e+00
9.171358835063672998e+00 -3.367037689937791622e+00
9.251809351160723338e+00 -3.380815873856658271e+00
9.332259867257773678e+00 -3.395198323434869714e+00
9.412710383354822241e+00 -3.384601973824040044e+00
9.493160899451872581e+00 -3.384473864137714116e+00
9.573611415548921144e+00 -3.414914170500235269e+00
9.654061931645971484e+00 -3.424318521364956514e+00
9.734512447743021823e+00 -3.392660238846873622e+00
9.814962963840072163e+00 -3.354786693853925250e+00
9.895413479937120727e+00 -3.366385014277921695e+00
9.975863996034171066e+00 -3.407717951260860634e+00
1.005631451213121963e+01 -3.449682089457463352e+00
1.013676502822827175e+01 -3.458299923263227438e+00
1.021721554432532031e+01 -3.437858780018871130e+00
1.029766606042237065e+01 -3.423555091019701013e+00
