0.000000000000000000e+00 -1.549019599857431873e-01
8.045051609704977069e-02 -1.905706759660708016e-01
1.609010321940995414e-01 -5.217977695729028031e-01
2.413515482911492982e-01 -1.278507416606581293e+00
3.218020643881990828e-01 -1.625119004602193495e+00
4.022525804852488118e-01 -2.043234879664003856e+00
4.827030965822985964e-01 -2.621424568639020070e+00
5.631536126793483810e-01 -3.076311519208505096e+00
6.436041287763981655e-01 -3.283687595934747794e+00
7.240546448734478391e-01 -3.317200994669393221e+00
8.045051609704976237e-01 -3.403504637739311445e+00
8.849556770675472972e-01 -3.565697657538680510e+00
9.654061931645971928e-01 -3.691106521315865141e+00
1.045856709261647088e+00 -3.762138783420576615e+00
1.126307225358696762e+00 -3.700676838640351463e+00
1.206757741455746435e+00 -3.631821631787701232e+00
1.287208257552796331e+00 -3.644035649159054202e+00
1.367658773649846005e+00 -3.673304039478750838e+00
1.448109289746895678e+00 -3.641840514386637029e+00
1.528559805843945352e+00 -3.588386632942666132e+00
1.609010321940995247e+00 -3.560024626869196851e+00
1.689460838038045143e+00 -3.440256800882008914e+00
1.769911354135094594e+00 -3.310557585183140361e+00
1.850361870232144490e+00 -3.260818160429578061e+00
1.930812386329194386e+00 -3.255976584523424311e+00
2.011262902426244281e+00 -3.230703177497213918e+00
2.091713418523294177e+00 -3.167694322684631469e+00
2.172163934620343628e+00 -3.162321981148007222e+00
2.252614450717393524e+00 -3.175599980315169546e+00
2.333064966814443419e+00 -3.183242050267335088e+00
2.413515482911492871e+00 -3.176885283626151857e+00
2.493965999008542767e+00 -3.166668451060999701e+00
2.574416515105592662e+00 -3.186320663957900923e+00
2.654867031202642558e+00 -3.232931136245829951e+00
2.735317547299692009e+00 -3.265544137208437725e+00
2.815768063396741905e+00 -3.272452291693000781e+00
2.896218579493791356e+00 -3.275137215977795169e+00
2.976669095590841252e+00 -3.271600899251732031e+00
3.057119611687890703e+00 -3.268803685053800034e+00
3.137570127784940599e+00 -3.234816947221758721e+00
3.218020643881990495e+00 -3.162952488317738897e+00
3.298471159979039946e+00 -3.151778854884183634e+00
3.378921676076090286e+00 -3.154556570553363137e+00
3.459372192173139737e+00 -3.163514509794975282e+00
3.539822708270189189e+00 -3.195935917332993981e+00
3.620273224367239528e+00 -3.215713046164679234e+00
3.700723740464288980e+00 -3.226924839224479147e+00
3.781174256561339320e+00 -3.219394781959342033e+00
3.861624772658388771e+00 -3.208551859372672954e+00
3.942075288755438223e+00 -3.217880456916515808e+00
4.022525804852488562e+00 -3.228916831317444114e+00
4.102976320949538014e+00 -3.262766685616687923e+00
4.183426837046588354e+00 -3.278256042192207786e+00
4.263877353143637805e+00 -3.279612802938545180e+00
4.344327869240687257e+00 -3.261212137475248518e+00
4.424778385337737596e+00 -3.237925288319846384e+00
4.505228901434787048e+00 -3.215016732949495193e+00
4.585679417531836499e+00 -3.218121980994116171e+00
4.666129933628886839e+00 -3.229877577456867765e+00
4.746580449725936290e+00 -3.242218982669970995e+00
4.827030965822985742e+00 -3.243681941392942303e+00
4.907481481920036082e+00 -3.246674869474455161e+00
4.987931998017085533e+00 -3.262323749948781160e+00
5.068382514114135873e+00 -3.269153867724656770e+00
5.148833030211185324e+00 -3.267470529073437824e+00
5.229283546308234776e+00 -3.265055438472465710e+00
5.309734062405285115e+00 -3.272253894572695554e+00
5.390184578502334567e+00 -3.272868046449644908e+00
5.470635094599384018e+00 -3.285921441972118107e+00
5.551085610696433470e+00 -3.308609167712496024e+00
5.631536126793483810e+00 -3.309616217790488424e+00
5.711986642890533261e+00 -3.296616176293428957e+00
5.792437158987582713e+00 -3.302230166164798586e+00
5.872887675084633052e+00 -3.295645269774954311e+00
5.953338191181682504e+00 -3.278708026512554330e+00
6.033788707278731955e+00 -3.268017281096112114e+00
6.114239223375781407e+00 -3.282064846230055011e+00
6.194689739472831747e+00 -3.327827393438812731e+00
6.275140255569881198e+00 -3.401686591086521272e+00
6.355590771666931538e+00 -3.441646796142511455e+00
6.436041287763980989e+00 -3.401108255398970659e+00
6.516491803861030441e+00 -3.320602887280473148e+00
6.596942319958079892e+00 -3.269379554966300727e+00
6.677392836055131120e+00 -3.242121802342709636e+00
6.757843352152180572e+00 -3.236983931037843654e+00
6.838293868249230023e+00 -3.271826322036153645e+00
6.918744384346279475e+00 -3.318286331609551887e+00
6.999194900443328926e+00 -3.320649691819205440e+00
7.079645416540378378e+00 -3.286509680521750187e+00
7.160095932637429605e+00 -3.276080021700670031e+00
7.240546448734479057e+00 -3.286034923381902839e+00
7.320996964831528508e+00 -3.290031880458585523e+00
7.401447480928577960e+00 -3.317793723022339325e+00
7.481897997025627411e+00 -3.340045038876708894e+00
7.562348513122678639e+00 -3.344232365821540487e+00
7.642799029219728091e+00 -3.319923040642397183e+00
7.723249545316777542e+00 -3.304221046630202885e+00
7.803700061413826994e+00 -3.315949672566459672e+00
7.884150577510876445e+00 -3.356466819820577818e+00
7.964601093607927673e+00 -3.374271579526304965e+00
8.045051609704977125e+00 -3.390701306282760452e+00
8.125502125802025688e+00 -3.410702743686570670e+00
8.205952641899076028e+00 -3.398287373662508770e+00
8.286403157996124591e+00 -3.373151225781554796e+00
8.366853674093176707e+00 -3.355100381445848878e+00
8.447304190190225270e+00 -3.337906971830913339e+00
8.527754706287275610e+00 -3.313847812480723132e+00
8.608205222384324173e+00 -3.320029963027348874e+00
8.688655738481374513e+00 -3.356503011071366060e+00
8.769106254578423076e+00 -3.378097437404824710e+00
8.849556770675475192e+00 -3.366429998720405603e+00
8.930007286772523756e+00 -3.338116177329613521e+00
9.010457802869574095e+00 -3.359961190229174388e+00
9.090908318966622659e+00 -3.398176028405585303e+00
9.171358835063672998e+00 -3.436374748803487478e+00
9.251809351160723338e+00 -3.429513699688933936e+00
9.332259867257773678e+00 -3.393205050548823820e+00
9.412710383354822241e+00 -3.365202414971300460e+00
9.493160899451872581e+00 -3.365184177384985542e+00
9.573611415548921144e+00 -3.381410382310624740e+00
9.654061931645971484e+00 -3.403998833960526937e+00
9.734512447743021823e+00 -3.415516741468443751e+00
9.814962963840072163e+00 -3.412254217571249360e+00
9.895413479937120727e+00 -3.405179370262327421e+00
9.975863996034171066e+00 -3.410239242927687098e+00
1.005631451213121963e+01 -3.431543916982041864e+00
1.013676502822827175e+01 -3.458940657550584330e+00
1.021721554432532031e+01 -3.473883316324980264e+00
1.029766606042237065e+01 -3.474134111201228947e+00
