0.000000000000000000e+00 -1.549019599857431873e-01
8.045051609704977069e-02 -1.970115839335144503e-01
1.609010321940995414e-01 -4.861698889081941810e-01
2.413515482911492982e-01 -1.071562997538582529e+00
3.218020643881990828e-01 -1.390018420298021029e+00
4.022525804852488118e-01 -1.636199568370760637e+00
4.827030965822985964e-01 -1.887114198497642725e+00
5.631536126793483810e-01 -2.310083947132174576e+00
6.436041287763981655e-01 -2.708621036434002871e+00
7.240546448734478391e-01 -2.872513482205254043e+00
8.045051609704976237e-01 -2.975490646056898392e+00
8.849556770675472972e-01 -3.079793159673928304e+00
9.654061931645971928e-01 -3.227730409788619692e+00
1.045856709261647088e+00 -3.303446245997137432e+00
1.126307225358696762e+00 -3.340058471638433613e+00
1.206757741455746435e+00 -3.333092157708449577e+00
1.287208257552796331e+00 -3.278319105429778002e+00
1.367658773649846005e+00 -3.211301908045160136e+00
1.448109289746895678e+00 -3.174138512091201569e+00
1.528559805843945352e+00 -3.175039225356644845e+00
1.609010321940995247e+00 -3.136280428693027034e+00
1.689460838038045143e+00 -3.080615168044754881e+00
1.769911354135094594e+00 -3.059879293689213409e+00
1.850361870232144490e+00 -3.098680886485984942e+00
1.930812386329194386e+00 -3.113004036409409814e+00
2.011262902426244281e+00 -3.066795433549371896e+00
2.091713418523294177e+00 -2.988622791632966180e+00
2.172163934620343628e+00 -2.910481395734952681e+00
2.252614450717393524e+00 -2.896283070075519994e+00
2.333064966814443419e+00 -2.928196504328568928e+00
2.413515482911492871e+00 -2.907637299960195598e+00
2.493965999008542767e+00 -2.883993326722466666e+00
2.574416515105592662e+00 -2.911167273660408394e+00
2.654867031202642558e+00 -2.945659825360452455e+00
2.735317547299692009e+00 -2.948892629041744318e+00
2.815768063396741905e+00 -2.928083499209446661e+00
2.896218579493791356e+00 -2.955907025815765810e+00
2.976669095590841252e+00 -3.007924759956109195e+00
3.057119611687890703e+00 -3.036123681449735212e+00
3.137570127784940599e+00 -3.024319180516191974e+00
3.218020643881990495e+00 -3.008243118978243924e+00
3.298471159979039946e+00 -2.984528777780210529e+00
3.378921676076090286e+00 -2.932015955287205156e+00
3.459372192173139737e+00 -2.918842304036766144e+00
3.539822708270189189e+00 -2.947623014353255133e+00
3.620273224367239528e+00 -2.966417864341777566e+00
3.700723740464288980e+00 -2.964681868824663891e+00
3.781174256561339320e+00 -2.961810556147455031e+00
3.861624772658388771e+00 -2.961219902196316145e+00
3.942075288755438223e+00 -2.959684492069046158e+00
4.022525804852488562e+00 -2.969820414355740734e+00
4.102976320949538014e+00 -2.998083642181479380e+00
4.183426837046588354e+00 -3.028590762461235819e+00
4.263877353143637805e+00 -3.023183225692115172e+00
4.344327869240687257e+00 -2.986080761136188144e+00
4.424778385337737596e+00 -2.964637060768737342e+00
4.505228901434787048e+00 -2.951629570539038738e+00
4.585679417531836499e+00 -2.956624950112403560e+00
4.666129933628886839e+00 -2.953584471705613890e+00
4.746580449725936290e+00 -2.956646471295606649e+00
4.827030965822985742e+00 -2.980410296319819352e+00
4.907481481920036082e+00 -3.028438649256322446e+00
4.987931998017085533e+00 -3.021678390718734786e+00
5.068382514114135873e+00 -3.002504104010623287e+00
5.148833030211185324e+00 -3.004375833552164199e+00
5.229283546308234776e+00 -3.019379880050242715e+00
5.309734062405285115e+00 -3.029381097092608499e+00
5.390184578502334567e+00 -3.051859252286697632e+00
5.470635094599384018e+00 -3.080751468400340976e+00
5.551085610696433470e+00 -3.113753529619755156e+00
5.631536126793483810e+00 -3.094878504889206461e+00
5.711986642890533261e+00 -3.008043202330743071e+00
5.792437158987582713e+00 -2.963131221764172540e+00
5.872887675084633052e+00 -2.954904875929530217e+00
5.953338191181682504e+00 -2.992568138787400578e+00
6.033788707278731955e+00 -3.039022198393918739e+00
6.114239223375781407e+00 -3.037021131113220918e+00
6.194689739472831747e+00 -3.007127331220847299e+00
6.275140255569881198e+00 -2.992230940838593867e+00
6.355590771666931538e+00 -2.994867503361352323e+00
6.436041287763980989e+00 -3.001015268138797598e+00
6.516491803861030441e+00 -3.021679885380293307e+00
6.596942319958079892e+00 -3.054463148788821414e+00
6.677392836055131120e+00 -3.076380593452558543e+00
6.757843352152180572e+00 -3.065035961934514219e+00
6.838293868249230023e+00 -3.042368593462948301e+00
6.918744384346279475e+00 -3.036318400634586023e+00
6.999194900443328926e+00 -3.026012112109425445e+00
7.079645416540378378e+00 -3.016785869168554512e+00
7.160095932637429605e+00 -3.018801502453479557e+00
7.240546448734479057e+00 -3.033682241779655619e+00
7.320996964831528508e+00 -3.060273478103228584e+00
7.401447480928577960e+00 -3.089496254739733327e+00
7.481897997025627411e+00 -3.110611235399368013e+00
7.562348513122678639e+00 -3.119505773480059307e+00
7.642799029219728091e+00 -3.115081324811405317e+00
7.723249545316777542e+00 -3.096117623578628741e+00
7.803700061413826994e+00 -3.092915291719212867e+00
7.884150577510876445e+00 -3.100913795130107342e+00
7.964601093607927673e+00 -3.109283485644394052e+00
8.045051609704977125e+00 -3.098940904097103655e+00
8.125502125802025688e+00 -3.073940439915500367e+00
8.205952641899076028e+00 -3.073900214976363010e+00
8.286403157996124591e+00 -3.079280729281383078e+00
8.366853674093176707e+00 -3.053067545893670687e+00
8.447304190190225270e+00 -3.055800469938757313e+00
8.527754706287275610e+00 -3.085555944884287083e+00
8.608205222384324173e+00 -3.084158704233880055e+00
8.688655738481374513e+00 -3.076576255390116366e+00
8.769106254578423076e+00 -3.086428707396786209e+00
8.849556770675475192e+00 -3.102577155673121201e+00
8.930007286772523756e+00 -3.100156802246631926e+00
9.010457802869574095e+00 -3.105281034227282966e+00
9.090908318966622659e+00 -3.111314884512197398e+00
9.171358835063672998e+00 -3.121744944233015406e+00
9.251809351160723338e+00 -3.087793803074954546e+00
9.332259867257773678e+00 -3.078753274813246232e+00
9.412710383354822241e+00 -3.112776941988946167e+00
9.493160899451872581e+00 -3.155367100126416524e+00
9.573611415548921144e+00 -3.152794783984760318e+00
9.654061931645971484e+00 -3.133280608348943730e+00
9.734512447743021823e+00 -3.119012824218005964e+00
9.814962963840072163e+00 -3.111437818067584793e+00
9.895413479937120727e+00 -3.109540178054971626e+00
9.975863996034171066e+00 -3.112034273466772305e+00
1.005631451213121963e+01 -3.112915489973524963e+00
1.013676502822827175e+01 -3.116926394761754260e+00
1.021721554432532031e+01 -3.117360981525592045e+00
1.029766606042237065e+01 -3.127280322250512334e+00
