0.000000000000000000e+00 -1.549019599857431873e-01
8.045051609704977069e-02 -1.991471764613331752e-01
1.609010321940995414e-01 -5.284256350313135675e-01
2.413515482911492982e-01 -1.106578636978335917e+00
3.218020643881990828e-01 -1.331694338537665612e+00
4.022525804852488118e-01 -1.696371042213836500e+00
4.827030965822985964e-01 -2.140558567767114173e+00
5.631536126793483810e-01 -2.451028660699134498e+00
6.436041287763981655e-01 -2.686105931068211827e+00
7.240546448734478391e-01 -2.809847280758844157e+00
8.045051609704976237e-01 -2.838564406268038631e+00
8.849556770675472972e-01 -2.882477159378044274e+00
9.654061931645971928e-01 -3.011169885712348115e+00
1.045856709261647088e+00 -3.160465878924306082e+00
1.126307225358696762e+00 -3.229677503246070280e+00
1.206757741455746435e+00 -3.230018667522079223e+00
1.287208257552796331e+00 -3.250929911238036318e+00
1.367658773649846005e+00 -3.281324722678938155e+00
1.448109289746895678e+00 -3.277982794016900847e+00
1.528559805843945352e+00 -3.212036069674262695e+00
1.609010321940995247e+00 -3.158917034731601348e+00
1.689460838038045143e+00 -3.128910190254438728e+00
1.769911354135094594e+00 -3.077063109071497049e+00
1.850361870232144490e+00 -2.962555537123737537e+00
1.930812386329194386e+00 -2.883974322488815023e+00
2.011262902426244281e+00 -2.869831545691087449e+00
2.091713418523294177e+00 -2.864619658094428534e+00
2.172163934620343628e+00 -2.880254188686941053e+00
2.252614450717393524e+00 -2.864637655021943008e+00
2.333064966814443419e+00 -2.820223975793120896e+00
2.413515482911492871e+00 -2.831193975458796697e+00
2.493965999008542767e+00 -2.876755560959621150e+00
2.574416515105592662e+00 -2.944879279174097420e+00
2.654867031202642558e+00 -3.019794694799761370e+00
2.735317547299692009e+00 -3.040770003816165801e+00
2.815768063396741905e+00 -2.997919511733992959e+00
2.896218579493791356e+00 -2.939498300990279311e+00
2.976669095590841252e+00 -2.897644766879514222e+00
3.057119611687890703e+00 -2.876238668662758791e+00
3.137570127784940599e+00 -2.884166695497438315e+00
3.218020643881990495e+00 -2.884085681637872156e+00
3.298471159979039946e+00 -2.875088719125586501e+00
3.378921676076090286e+00 -2.909085019758249846e+00
3.459372192173139737e+00 -2.910050238287505309e+00
3.539822708270189189e+00 -2.886965190050346131e+00
3.620273224367239528e+00 -2.864584403400908030e+00
3.700723740464288980e+00 -2.849386281555689404e+00
3.781174256561339320e+00 -2.852265389532845141e+00
3.861624772658388771e+00 -2.851390744052023862e+00
3.942075288755438223e+00 -2.854639532492969867e+00
4.022525804852488562e+00 -2.886331379856600599e+00
4.102976320949538014e+00 -2.899949308332538500e+00
4.183426837046588354e+00 -2.887181582863265206e+00
4.263877353143637805e+00 -2.891529893159517250e+00
4.344327869240687257e+00 -2.913521958301980241e+00
4.424778385337737596e+00 -2.933846540415494974e+00
4.505228901434787048e+00 -2.943061267818380511e+00
4.585679417531836499e+00 -2.988267869164721979e+00
4.666129933628886839e+00 -2.984580185807524710e+00
4.746580449725936290e+00 -2.980005282743940942e+00
4.827030965822985742e+00 -2.991050619028542634e+00
4.907481481920036082e+00 -2.976154295669461547e+00
4.987931998017085533e+00 -2.960451249400382956e+00
5.068382514114135873e+00 -2.963343495794703131e+00
5.148833030211185324e+00 -2.974105533828287573e+00
5.229283546308234776e+00 -2.993145081140324848e+00
5.309734062405285115e+00 -3.012806743760190642e+00
5.390184578502334567e+00 -3.023133454258189357e+00
5.470635094599384018e+00 -3.015623916952795192e+00
5.551085610696433470e+00 -3.007438140740243959e+00
5.631536126793483810e+00 -2.995230707350831079e+00
5.711986642890533261e+00 -3.005494437992318524e+00
5.792437158987582713e+00 -3.013086823054325070e+00
5.872887675084633052e+00 -2.999233270807085017e+00
5.953338191181682504e+00 -2.976105601100137665e+00
6.033788707278731955e+00 -2.937518398609144210e+00
6.114239223375781407e+00 -2.925082713909334498e+00
6.194689739472831747e+00 -2.941112836738520642e+00
6.275140255569881198e+00 -2.954100048832256409e+00
6.355590771666931538e+00 -2.951839311621812900e+00
6.436041287763980989e+00 -2.951610883423288811e+00
6.516491803861030441e+00 -3.010776090322559106e+00
6.596942319958079892e+00 -3.049680917077169262e+00
6.677392836055131120e+00 -3.039947968577049409e+00
6.757843352152180572e+00 -3.011075888373022647e+00
6.838293868249230023e+00 -2.987271559284291111e+00
6.918744384346279475e+00 -2.954853415766861779e+00
6.999194900443328926e+00 -2.952451061090959339e+00
7.079645416540378378e+00 -2.967618844388431931e+00
7.160095932637429605e+00 -2.979421876465031982e+00
7.240546448734479057e+00 -3.000554269387219364e+00
7.320996964831528508e+00 -3.059524170675057331e+00
7.401447480928577960e+00 -3.112331373278945268e+00
7.481897997025627411e+00 -3.126485927618764649e+00
7.562348513122678639e+00 -3.123410411934980146e+00
7.642799029219728091e+00 -3.132643700606792425e+00
7.723249545316777542e+00 -3.138846285816829784e+00
7.803700061413826994e+00 -3.111805336911474207e+00
7.884150577510876445e+00 -3.097943093339257548e+00
7.964601093607927673e+00 -3.091458527875824203e+00
8.045051609704977125e+00 -3.080355858250653611e+00
8.125502125802025688e+00 -3.077176829011393000e+00
8.205952641899076028e+00 -3.065049018076392517e+00
8.286403157996124591e+00 -3.063683226479866128e+00
8.366853674093176707e+00 -3.101852056666023039e+00
8.447304190190225270e+00 -3.122177425273886531e+00
8.527754706287275610e+00 -3.111909303728021214e+00
8.608205222384324173e+00 -3.081118903528575093e+00
8.688655738481374513e+00 -3.052055129105475828e+00
8.769106254578423076e+00 -3.033176981328824073e+00
8.849556770675475192e+00 -3.020942536555549118e+00
8.930007286772523756e+00 -3.038505064318037796e+00
9.010457802869574095e+00 -3.049582447523096373e+00
9.090908318966622659e+00 -3.044188944424258025e+00
9.171358835063672998e+00 -3.026729248335154665e+00
9.251809351160723338e+00 -3.041349677335109636e+00
9.332259867257773678e+00 -3.075209870324002726e+00
9.412710383354822241e+00 -3.089162179727511059e+00
9.493160899451872581e+00 -3.086652975370960394e+00
9.573611415548921144e+00 -3.076683631250450635e+00
9.654061931645971484e+00 -3.096372279978433451e+00
9.734512447743021823e+00 -3.121155821676390829e+00
9.814962963840072163e+00 -3.148560234405714642e+00
9.895413479937120727e+00 -3.166794271234351754e+00
9.975863996034171066e+00 -3.153874636701675005e+00
1.005631451213121963e+01 -3.143873685655430350e+00
1.013676502822827175e+01 -3.142745378339858675e+00
1.021721554432532031e+01 -3.152516496561459824e+00
1.029766606042237065e+01 -3.152103087440832674e+00
