0.000000000000000000e+00 -1.549019599857431873e-01
8.045051609704977069e-02 -1.787417453075505203e-01
1.609010321940995414e-01 -3.595021619294296311e-01
2.413515482911492982e-01 -6.863609217911597060e-01
3.218020643881990828e-01 -9.292522821082065398e-01
4.022525804852488118e-01 -1.302062158816276405e+00
4.827030965822985964e-01 -1.726410240420496622e+00
5.631536126793483810e-01 -2.127055890343124922e+00
6.436041287763981655e-01 -2.487682086455872188e+00
7.240546448734478391e-01 -2.642241816734639759e+00
8.045051609704976237e-01 -2.780918133471204534e+00
8.849556770675472972e-01 -2.895052685870140863e+00
9.654061931645971928e-01 -3.021110799965819993e+00
1.045856709261647088e+00 -3.159543093812652970e+00
1.126307225358696762e+00 -3.271803564099920791e+00
1.206757741455746435e+00 -3.306414914404448790e+00
1.287208257552796331e+00 -3.256565256961501120e+00
1.367658773649846005e+00 -3.235361145231326230e+00
1.448109289746895678e+00 -3.285698414468302353e+00
1.528559805843945352e+00 -3.344161078190368119e+00
1.609010321940995247e+00 -3.309810349760645920e+00
1.689460838038045143e+00 -3.226395876899132542e+00
1.769911354135094594e+00 -3.156587828933191009e+00
1.850361870232144490e+00 -3.149446226142970762e+00
1.930812386329194386e+00 -3.108945386321936066e+00
2.011262902426244281e+00 -3.012799032770325791e+00
2.091713418523294177e+00 -2.957132394529917274e+00
2.172163934620343628e+00 -2.907060013272223742e+00
2.252614450717393524e+00 -2.864476487274114191e+00
2.333064966814443419e+00 -2.835195411469638493e+00
2.413515482911492871e+00 -2.852759526245636668e+00
2.493965999008542767e+00 -2.916773911054698409e+00
2.574416515105592662e+00 -2.973903812878234021e+00
2.654867031202642558e+00 -2.994434986426716794e+00
2.735317547299692009e+00 -3.018223166352115960e+00
2.815768063396741905e+00 -3.051280970032787199e+00
2.896218579493791356e+00 -3.052629510097562004e+00
2.976669095590841252e+00 -3.034427115500034855e+00
3.057119611687890703e+00 -2.999783932791521668e+00
3.137570127784940599e+00 -2.990526603422846375e+00
3.218020643881990495e+00 -3.016145977345904061e+00
3.298471159979039946e+00 -3.057027674738449718e+00
3.378921676076090286e+00 -3.064924863306971670e+00
3.459372192173139737e+00 -3.059928457134346136e+00
3.539822708270189189e+00 -3.059546784818231835e+00
3.620273224367239528e+00 -3.012891878456784411e+00
3.700723740464288980e+00 -2.941666239731057342e+00
3.781174256561339320e+00 -2.880746640881281628e+00
3.861624772658388771e+00 -2.868604577211745887e+00
3.942075288755438223e+00 -2.870380862764474461e+00
4.022525804852488562e+00 -2.902369745993494732e+00
4.102976320949538014e+00 -2.929782944211989371e+00
4.183426837046588354e+00 -2.936890331773186702e+00
4.263877353143637805e+00 -2.929601632483998408e+00
4.344327869240687257e+00 -2.904447078071815014e+00
4.424778385337737596e+00 -2.880944727954765749e+00
4.505228901434787048e+00 -2.891505704184902825e+00
4.585679417531836499e+00 -2.918546052801155088e+00
4.666129933628886839e+00 -2.954620622788159068e+00
4.746580449725936290e+00 -2.974340369173262388e+00
4.827030965822985742e+00 -2.990220869936316195e+00
4.907481481920036082e+00 -2.985048124819200677e+00
4.987931998017085533e+00 -2.991182433122000717e+00
5.068382514114135873e+00 -3.013193203570382561e+00
5.148833030211185324e+00 -3.034056979369464724e+00
5.229283546308234776e+00 -3.034608902225684801e+00
5.309734062405285115e+00 -3.038149964270463688e+00
5.390184578502334567e+00 -3.039834824517195333e+00
5.470635094599384018e+00 -3.043063639560761757e+00
5.551085610696433470e+00 -3.046846158338560873e+00
5.631536126793483810e+00 -3.063417627405844001e+00
5.711986642890533261e+00 -3.056180665337665303e+00
5.792437158987582713e+00 -3.028598943617822670e+00
5.872887675084633052e+00 -3.005127373688741610e+00
5.953338191181682504e+00 -2.983444517687222852e+00
6.033788707278731955e+00 -2.953952350044514841e+00
6.114239223375781407e+00 -2.945112685977224753e+00
6.194689739472831747e+00 -2.959130334752223312e+00
6.275140255569881198e+00 -2.967639791830698925e+00
6.355590771666931538e+00 -2.989860917190533485e+00
6.436041287763980989e+00 -3.022661689756782177e+00
6.516491803861030441e+00 -3.005914191205336206e+00
6.596942319958079892e+00 -3.010725311185596276e+00
6.677392836055131120e+00 -2.995336795924880224e+00
6.757843352152180572e+00 -2.968054888722711393e+00
6.838293868249230023e+00 -2.950389642291572301e+00
6.918744384346279475e+00 -2.956111315220151248e+00
6.999194900443328926e+00 -2.961538518439408296e+00
7.079645416540378378e+00 -2.953838629873550836e+00
7.160095932637429605e+00 -2.968023136520799188e+00
7.240546448734479057e+00 -2.986062941031574880e+00
7.320996964831528508e+00 -3.016781307703164661e+00
7.401447480928577960e+00 -3.042926437284584118e+00
7.481897997025627411e+00 -3.046882657946204276e+00
7.562348513122678639e+00 -3.048335310896650885e+00
7.642799029219728091e+00 -3.027689676501682747e+00
7.723249545316777542e+00 -3.009027324542918880e+00
7.803700061413826994e+00 -3.007729863185407915e+00
7.884150577510876445e+00 -3.031374876619411740e+00
7.964601093607927673e+00 -3.058447423561240441e+00
8.045051609704977125e+00 -3.073479261535561058e+00
8.125502125802025688e+00 -3.052661701071196276e+00
8.205952641899076028e+00 -3.031658156434214657e+00
8.286403157996124591e+00 -3.036429296109294018e+00
8.366853674093176707e+00 -3.059118779924919096e+00
8.447304190190225270e+00 -3.083854940462043448e+00
8.527754706287275610e+00 -3.126013921419814157e+00
8.608205222384324173e+00 -3.150582617578713940e+00
8.688655738481374513e+00 -3.138337811558368440e+00
8.769106254578423076e+00 -3.110646179460935912e+00
8.849556770675475192e+00 -3.105867210530164346e+00
8.930007286772523756e+00 -3.110009105565368248e+00
9.010457802869574095e+00 -3.108852047707294730e+00
9.090908318966622659e+00 -3.108474807165207743e+00
9.171358835063672998e+00 -3.119488753355350585e+00
9.251809351160723338e+00 -3.114288622144003593e+00
9.332259867257773678e+00 -3.110151881313740319e+00
9.412710383354822241e+00 -3.113390980456698820e+00
9.493160899451872581e+00 -3.100860139247355374e+00
9.573611415548921144e+00 -3.102074182548212100e+00
9.654061931645971484e+00 -3.122729447152684745e+00
9.734512447743021823e+00 -3.134371468986424158e+00
9.814962963840072163e+00 -3.129627449799516015e+00
9.895413479937120727e+00 -3.136112043716587916e+00
9.975863996034171066e+00 -3.144440925059650116e+00
1.005631451213121963e+01 -3.161014962652125782e+00
1.013676502822827175e+01 -3.163223242961920256e+00
1.021721554432532031e+01 -3.157439800172669564e+00
1.029766606042237065e+01 -3.142532485571562173e+00
