0.000000000000000000e+00 -1.549019599857431873e-01
8.045051609704977069e-02 -2.054851124201738655e-01
1.609010321940995414e-01 -6.394526126014525857e-01
2.413515482911492982e-01 -2.802888984405273565e+00
3.218020643881990828e-01 -3.517885596979420271e+00
4.022525804852488118e-01 -3.202370626719947655e+00
4.827030965822985964e-01 -3.207736034173302997e+00
5.631536126793483810e-01 -3.247459003849854309e+00
6.436041287763981655e-01 -3.214367547658508517e+00
7.240546448734478391e-01 -3.253685793196779308e+00
8.045051609704976237e-01 -3.282803160163901612e+00
8.849556770675472972e-01 -3.287047686063696350e+00
9.654061931645971928e-01 -3.358761787581034497e+00
1.045856709261647088e+00 -3.452024965358515995e+00
1.126307225358696762e+00 -3.490028253527276192e+00
1.206757741455746435e+00 -3.498978003307624540e+00
1.287208257552796331e+00 -3.530057863572789500e+00
1.367658773649846005e+00 -3.491465616627167812e+00
1.448109289746895678e+00 -3.406929256909117854e+00
1.528559805843945352e+00 -3.361028614207118626e+00
1.609010321940995247e+00 -3.336923868217706257e+00
1.689460838038045143e+00 -3.278582649281022832e+00
1.769911354135094594e+00 -3.247588797862847709e+00
1.850361870232144490e+00 -3.239734376600721610e+00
1.930812386329194386e+00 -3.240957212163909862e+00
2.011262902426244281e+00 -3.190891766943428909e+00
2.091713418523294177e+00 -3.140338741364266717e+00
2.172163934620343628e+00 -3.122813942294220713e+00
2.252614450717393524e+00 -3.140064842172952453e+00
2.333064966814443419e+00 -3.149588216592200229e+00
2.413515482911492871e+00 -3.154314718182269939e+00
2.493965999008542767e+00 -3.202525105940904560e+00
2.574416515105592662e+00 -3.271398134696514859e+00
2.654867031202642558e+00 -3.325567512817236615e+00
2.735317547299692009e+00 -3.316532736377387103e+00
2.815768063396741905e+00 -3.286410432479486499e+00
2.896218579493791356e+00 -3.303370641585392509e+00
2.976669095590841252e+00 -3.320383796825479905e+00
3.057119611687890703e+00 -3.309822681405811817e+00
3.137570127784940599e+00 -3.288216874638999254e+00
3.218020643881990495e+00 -3.282908232010851357e+00
3.298471159979039946e+00 -3.267251229824029934e+00
3.378921676076090286e+00 -3.247708425487886075e+00
3.459372192173139737e+00 -3.226706692456521530e+00
3.539822708270189189e+00 -3.217127893491190438e+00
3.620273224367239528e+00 -3.216307675406255395e+00
3.700723740464288980e+00 -3.213608277024468496e+00
3.781174256561339320e+00 -3.181246192052040289e+00
3.861624772658388771e+00 -3.142995255513945985e+00
3.942075288755438223e+00 -3.159424030262630634e+00
4.022525804852488562e+00 -3.216113027907415045e+00
4.102976320949538014e+00 -3.270434144666714005e+00
4.183426837046588354e+00 -3.268265013594951363e+00
4.263877353143637805e+00 -3.255381002750595165e+00
4.344327869240687257e+00 -3.261554067966725867e+00
4.424778385337737596e+00 -3.276832858071461629e+00
4.505228901434787048e+00 -3.269596635250168859e+00
4.585679417531836499e+00 -3.242120232123120616e+00
4.666129933628886839e+00 -3.244755156303396948e+00
4.746580449725936290e+00 -3.262552367757614480e+00
4.827030965822985742e+00 -3.290948602066901874e+00
4.907481481920036082e+00 -3.315700411409888027e+00
4.987931998017085533e+00 -3.329449081888473216e+00
5.068382514114135873e+00 -3.341588029920612879e+00
5.148833030211185324e+00 -3.316768317076745021e+00
5.229283546308234776e+00 -3.288890960973354982e+00
5.309734062405285115e+00 -3.282793885374042375e+00
5.390184578502334567e+00 -3.294295982896708441e+00
5.470635094599384018e+00 -3.287162944840631873e+00
5.551085610696433470e+00 -3.249775934373522635e+00
5.631536126793483810e+00 -3.249089462304879827e+00
5.711986642890533261e+00 -3.277077907672063972e+00
5.792437158987582713e+00 -3.269093629628366582e+00
5.872887675084633052e+00 -3.255401081029629218e+00
5.953338191181682504e+00 -3.263549841069206980e+00
6.033788707278731955e+00 -3.247549919844398225e+00
6.114239223375781407e+00 -3.226031616056017626e+00
6.194689739472831747e+00 -3.217161612850222507e+00
6.275140255569881198e+00 -3.236665247357849662e+00
6.355590771666931538e+00 -3.260915859799047745e+00
6.436041287763980989e+00 -3.298518866076817435e+00
6.516491803861030441e+00 -3.309888219960404054e+00
6.596942319958079892e+00 -3.294197967314610231e+00
6.677392836055131120e+00 -3.271716105971099964e+00
6.757843352152180572e+00 -3.267387348439931394e+00
6.838293868249230023e+00 -3.279250669570890508e+00
6.918744384346279475e+00 -3.302415616498099560e+00
6.999194900443328926e+00 -3.327621991142303060e+00
7.079645416540378378e+00 -3.333499642571171595e+00
7.160095932637429605e+00 -3.331286682219315676e+00
7.240546448734479057e+00 -3.337015491020322244e+00
7.320996964831528508e+00 -3.337426516951116806e+00
7.401447480928577960e+00 -3.327770859447025220e+00
7.481897997025627411e+00 -3.298356239221934771e+00
7.562348513122678639e+00 -3.266802020550540142e+00
7.642799029219728091e+00 -3.249442837346479429e+00
7.723249545316777542e+00 -3.280317600097387043e+00
7.803700061413826994e+00 -3.300118326841536387e+00
7.884150577510876445e+00 -3.310208605873995680e+00
7.964601093607927673e+00 -3.343435749965733006e+00
8.045051609704977125e+00 -3.369915208551504282e+00
8.125502125802025688e+00 -3.375504512695441495e+00
8.205952641899076028e+00 -3.385144501460689348e+00
8.286403157996124591e+00 -3.393499074811490157e+00
8.366853674093176707e+00 -3.407978172040445397e+00
8.447304190190225270e+00 -3.404444636683685133e+00
8.527754706287275610e+00 -3.404738503815391670e+00
8.608205222384324173e+00 -3.409743650045499841e+00
8.688655738481374513e+00 -3.417049244826603882e+00
8.769106254578423076e+00 -3.407179598209209015e+00
8.849556770675475192e+00 -3.392149145107518304e+00
8.930007286772523756e+00 -3.373927000023947187e+00
9.010457802869574095e+00 -3.382857557836226992e+00
9.090908318966622659e+00 -3.383288067462201454e+00
9.171358835063672998e+00 -3.368991324008181909e+00
9.251809351160723338e+00 -3.360038357035529888e+00
9.332259867257773678e+00 -3.374780014890301771e+00
9.412710383354822241e+00 -3.389153132615628561e+00
9.493160899451872581e+00 -3.377911827642690934e+00
9.573611415548921144e+00 -3.373953736730401776e+00
9.654061931645971484e+00 -3.417183409627091439e+00
9.734512447743021823e+00 -3.445538869541783455e+00
9.814962963840072163e+00 -3.451330492476206491e+00
9.895413479937120727e+00 -3.416109192203307998e+00
9.975863996034171066e+00 -3.407951810631774325e+00
1.005631451213121963e+01 -3.430900634330621646e+00
1.013676502822827175e+01 -3.437881299406145619e+00
1.021721554432532031e+01 -3.441969276316760862e+00
1.029766606042237065e+01 -3.448409736893595756e+00
