0.000000000000000000e+00 -1.549019599857431873e-01
8.045051609704977069e-02 -1.936237151097839615e-01
1.609010321940995414e-01 -5.744458820020765799e-01
2.413515482911492982e-01 -2.222798074301671534e+00
3.218020643881990828e-01 -3.395587829254639534e+00
4.022525804852488118e-01 -3.280348308453784334e+00
4.827030965822985964e-01 -3.106913782502913612e+00
5.631536126793483810e-01 -3.087971311349477777e+00
6.436041287763981655e-01 -3.216977651498942326e+00
7.240546448734478391e-01 -3.313824343123379368e+00
8.045051609704976237e-01 -3.356246491994931525e+00
8.849556770675472972e-01 -3.382788989385221434e+00
9.654061931645971928e-01 -3.403822583000432722e+00
1.045856709261647088e+00 -3.410538650383944326e+00
1.126307225358696762e+00 -3.451754094777626847e+00
1.206757741455746435e+00 -3.439210748230024262e+00
1.287208257552796331e+00 -3.361166638152309982e+00
1.367658773649846005e+00 -3.326556790070320790e+00
1.448109289746895678e+00 -3.307347698324520024e+00
1.528559805843945352e+00 -3.279648501995570342e+00
1.609010321940995247e+00 -3.258594764843330438e+00
1.689460838038045143e+00 -3.251286590217590700e+00
1.769911354135094594e+00 -3.261075285941144042e+00
1.850361870232144490e+00 -3.264499436255166032e+00
1.930812386329194386e+00 -3.263261390653731997e+00
2.011262902426244281e+00 -3.240879093363028929e+00
2.091713418523294177e+00 -3.184234812998840258e+00
2.172163934620343628e+00 -3.188178311517338326e+00
2.252614450717393524e+00 -3.221957041818183765e+00
2.333064966814443419e+00 -3.232201266751805413e+00
2.413515482911492871e+00 -3.191459765925164227e+00
2.493965999008542767e+00 -3.155614538254290391e+00
2.574416515105592662e+00 -3.124284232125952965e+00
2.654867031202642558e+00 -3.146875710567846873e+00
2.735317547299692009e+00 -3.191714565266841941e+00
2.815768063396741905e+00 -3.212041861914820107e+00
2.896218579493791356e+00 -3.207829554091995217e+00
2.976669095590841252e+00 -3.217808790162832278e+00
3.057119611687890703e+00 -3.232877009799127066e+00
3.137570127784940599e+00 -3.239735070668291694e+00
3.218020643881990495e+00 -3.203687167062728047e+00
3.298471159979039946e+00 -3.186373935157098547e+00
3.378921676076090286e+00 -3.193637587332457173e+00
3.459372192173139737e+00 -3.219378532306723439e+00
3.539822708270189189e+00 -3.248028304049087378e+00
3.620273224367239528e+00 -3.229038317593697638e+00
3.700723740464288980e+00 -3.178901640578416288e+00
3.781174256561339320e+00 -3.165085647740671249e+00
3.861624772658388771e+00 -3.184013984946805653e+00
3.942075288755438223e+00 -3.220664029908480774e+00
4.022525804852488562e+00 -3.273357526921629734e+00
4.102976320949538014e+00 -3.293629393506549263e+00
4.183426837046588354e+00 -3.275565216883266295e+00
4.263877353143637805e+00 -3.259040643418321892e+00
4.344327869240687257e+00 -3.248628593263118258e+00
4.424778385337737596e+00 -3.215032381011541318e+00
4.505228901434787048e+00 -3.189587569539539036e+00
4.585679417531836499e+00 -3.207934066216034719e+00
4.666129933628886839e+00 -3.255383432842811064e+00
4.746580449725936290e+00 -3.288812013372967247e+00
4.827030965822985742e+00 -3.263816296582159993e+00
4.907481481920036082e+00 -3.260202577627213660e+00
4.987931998017085533e+00 -3.252672141705142295e+00
5.068382514114135873e+00 -3.223424695317766986e+00
5.148833030211185324e+00 -3.192512233361972651e+00
5.229283546308234776e+00 -3.201594153321132730e+00
5.309734062405285115e+00 -3.255169982868939549e+00
5.390184578502334567e+00 -3.307827837763614998e+00
5.470635094599384018e+00 -3.312594697700001145e+00
5.551085610696433470e+00 -3.272302903767070337e+00
5.631536126793483810e+00 -3.244851868675181272e+00
5.711986642890533261e+00 -3.261246701856270302e+00
5.792437158987582713e+00 -3.253132567463631553e+00
5.872887675084633052e+00 -3.226959679301201422e+00
5.953338191181682504e+00 -3.226231013497757871e+00
6.033788707278731955e+00 -3.251197953975983435e+00
6.114239223375781407e+00 -3.266226403966478564e+00
6.194689739472831747e+00 -3.289341143326764527e+00
6.275140255569881198e+00 -3.319696047561266905e+00
6.355590771666931538e+00 -3.299226663636324108e+00
6.436041287763980989e+00 -3.289372799398652791e+00
6.516491803861030441e+00 -3.283630208799614980e+00
6.596942319958079892e+00 -3.286322532511622541e+00
6.677392836055131120e+00 -3.288077626584821722e+00
6.757843352152180572e+00 -3.275572893887261472e+00
6.838293868249230023e+00 -3.234228869690889852e+00
6.918744384346279475e+00 -3.207938116964824449e+00
6.999194900443328926e+00 -3.232266396507472717e+00
7.079645416540378378e+00 -3.274681671279447315e+00
7.160095932637429605e+00 -3.290526123897622668e+00
7.240546448734479057e+00 -3.274843733854967631e+00
7.320996964831528508e+00 -3.258220731216100674e+00
7.401447480928577960e+00 -3.255631617660994515e+00
7.481897997025627411e+00 -3.258214543308157740e+00
7.562348513122678639e+00 -3.276196002098010318e+00
7.642799029219728091e+00 -3.301877939213443192e+00
7.723249545316777542e+00 -3.331761567905662247e+00
7.803700061413826994e+00 -3.348995837326990355e+00
7.884150577510876445e+00 -3.345888392886506857e+00
7.964601093607927673e+00 -3.343846401014691327e+00
8.045051609704977125e+00 -3.326969087986077600e+00
8.125502125802025688e+00 -3.310447037712806129e+00
8.205952641899076028e+00 -3.289824028012705792e+00
8.286403157996124591e+00 -3.284588636008322293e+00
8.366853674093176707e+00 -3.296190523481815848e+00
8.447304190190225270e+00 -3.317608743225115564e+00
8.527754706287275610e+00 -3.326883901091387763e+00
8.608205222384324173e+00 -3.346197247395264363e+00
8.688655738481374513e+00 -3.334299419038816215e+00
8.769106254578423076e+00 -3.311871065215437060e+00
8.849556770675475192e+00 -3.336645691675779180e+00
8.930007286772523756e+00 -3.362270984955223252e+00
9.010457802869574095e+00 -3.368498403878541048e+00
9.090908318966622659e+00 -3.369076209514380693e+00
9.171358835063672998e+00 -3.382026017922382000e+00
9.251809351160723338e+00 -3.409632942666189770e+00
9.332259867257773678e+00 -3.428398435089973439e+00
9.412710383354822241e+00 -3.411015630976240054e+00
9.493160899451872581e+00 -3.386353116765281168e+00
9.573611415548921144e+00 -3.391702390698636549e+00
9.654061931645971484e+00 -3.388304570571005314e+00
9.734512447743021823e+00 -3.377118260948033246e+00
9.814962963840072163e+00 -3.388320623781928997e+00
9.895413479937120727e+00 -3.413872868066606614e+00
9.975863996034171066e+00 -3.424476434331043428e+00
1.005631451213121963e+01 -3.422435042741659217e+00
1.013676502822827175e+01 -3.419462547926439111e+00
1.021721554432532031e+01 -3.401303458644704403e+00
1.029766606042237065e+01 -3.381331833104958662e+00
