0.000000000000000000e+00 -1.549019599857431873e-01
8.045051609704977069e-02 -2.057058737297403350e-01
1.609010321940995414e-01 -5.431698423505489925e-01
2.413515482911492982e-01 -1.162118638171683704e+00
3.218020643881990828e-01 -1.482047007756251311e+00
4.022525804852488118e-01 -1.972040497149387894e+00
4.827030965822985964e-01 -2.411184063792210619e+00
5.631536126793483810e-01 -2.840742342947160104e+00
6.436041287763981655e-01 -3.211031951785725980e+00
7.240546448734478391e-01 -3.346044370877959029e+00
8.045051609704976237e-01 -3.449426368786591368e+00
8.849556770675472972e-01 -3.538024853754611065e+00
9.654061931645971928e-01 -3.527628370570242033e+00
1.045856709261647088e+00 -3.483489354972695295e+00
1.126307225358696762e+00 -3.472783202963340532e+00
1.206757741455746435e+00 -3.501221197426651166e+00
1.287208257552796331e+00 -3.525560303529421180e+00
1.367658773649846005e+00 -3.562659861052478671e+00
1.448109289746895678e+00 -3.565607201945984350e+00
1.528559805843945352e+00 -3.446111020948015025e+00
1.609010321940995247e+00 -3.348143359676090114e+00
1.689460838038045143e+00 -3.297178728186860308e+00
1.769911354135094594e+00 -3.283119555455822791e+00
1.850361870232144490e+00 -3.266967114689816931e+00
1.930812386329194386e+00 -3.201980278512602140e+00
2.011262902426244281e+00 -3.145127430820685799e+00
2.091713418523294177e+00 -3.146561876564833771e+00
2.172163934620343628e+00 -3.173805359063172293e+00
2.252614450717393524e+00 -3.178564486880220308e+00
2.333064966814443419e+00 -3.135615349534147889e+00
2.413515482911492871e+00 -3.113433978523335810e+00
2.493965999008542767e+00 -3.145249034627199514e+00
2.574416515105592662e+00 -3.169444250442707389e+00
2.654867031202642558e+00 -3.212172465738712734e+00
2.735317547299692009e+00 -3.212443801422165013e+00
2.815768063396741905e+00 -3.173550870679924252e+00
2.896218579493791356e+00 -3.156873508202341583e+00
2.976669095590841252e+00 -3.159064704323719219e+00
3.057119611687890703e+00 -3.142006495599282800e+00
3.137570127784940599e+00 -3.084234754633010667e+00
3.218020643881990495e+00 -3.038185198567596945e+00
3.298471159979039946e+00 -2.997251621870051341e+00
3.378921676076090286e+00 -2.979537742288995705e+00
3.459372192173139737e+00 -3.019569764634312037e+00
3.539822708270189189e+00 -3.058711365817802896e+00
3.620273224367239528e+00 -3.083916400878591535e+00
3.700723740464288980e+00 -3.097470722104753715e+00
3.781174256561339320e+00 -3.079363758225444947e+00
3.861624772658388771e+00 -3.054425906717994632e+00
3.942075288755438223e+00 -3.063242383280528891e+00
4.022525804852488562e+00 -3.073211796090399961e+00
4.102976320949538014e+00 -3.107798137356474477e+00
4.183426837046588354e+00 -3.173337625024844399e+00
4.263877353143637805e+00 -3.196125831897454361e+00
4.344327869240687257e+00 -3.161221444635938127e+00
4.424778385337737596e+00 -3.141803526671695934e+00
4.505228901434787048e+00 -3.130425911396720995e+00
4.585679417531836499e+00 -3.155845294455471794e+00
4.666129933628886839e+00 -3.200440955497430462e+00
4.746580449725936290e+00 -3.223505912967930875e+00
4.827030965822985742e+00 -3.203008007588455275e+00
4.907481481920036082e+00 -3.174751239741140818e+00
4.987931998017085533e+00 -3.149943676448977659e+00
5.068382514114135873e+00 -3.155504193249194511e+00
5.148833030211185324e+00 -3.149333322852015726e+00
5.229283546308234776e+00 -3.157195786219147760e+00
5.309734062405285115e+00 -3.138790668364458636e+00
5.390184578502334567e+00 -3.127118434789454948e+00
5.470635094599384018e+00 -3.150742489761801046e+00
5.551085610696433470e+00 -3.180306722379358852e+00
5.631536126793483810e+00 -3.168263328919919797e+00
5.711986642890533261e+00 -3.169236009214810412e+00
5.792437158987582713e+00 -3.186420069363545604e+00
5.872887675084633052e+00 -3.203523894363382141e+00
5.953338191181682504e+00 -3.208509490293035338e+00
6.033788707278731955e+00 -3.182074399685129062e+00
6.114239223375781407e+00 -3.158164192978798024e+00
6.194689739472831747e+00 -3.151806678106746418e+00
6.275140255569881198e+00 -3.151083930965612012e+00
6.355590771666931538e+00 -3.151086028471005385e+00
6.436041287763980989e+00 -3.136660190703442375e+00
6.516491803861030441e+00 -3.163517734806193360e+00
6.596942319958079892e+00 -3.191412424852261953e+00
6.677392836055131120e+00 -3.193189793680211164e+00
6.757843352152180572e+00 -3.166886437834566248e+00
6.838293868249230023e+00 -3.161536466597038686e+00
6.918744384346279475e+00 -3.171202377281416851e+00
6.999194900443328926e+00 -3.208406364340993022e+00
7.079645416540378378e+00 -3.213510583567677603e+00
7.160095932637429605e+00 -3.199730998026621087e+00
7.240546448734479057e+00 -3.200431985213351815e+00
7.320996964831528508e+00 -3.209608527915452036e+00
7.401447480928577960e+00 -3.215855839634071955e+00
7.481897997025627411e+00 -3.255912832632696041e+00
7.562348513122678639e+00 -3.266989674481445949e+00
7.642799029219728091e+00 -3.237638464362619040e+00
7.723249545316777542e+00 -3.209022330680153079e+00
7.803700061413826994e+00 -3.203209002799691341e+00
7.884150577510876445e+00 -3.196830017154852488e+00
7.964601093607927673e+00 -3.198981280302030772e+00
8.045051609704977125e+00 -3.220996980126132225e+00
8.125502125802025688e+00 -3.263971355398565422e+00
8.205952641899076028e+00 -3.264956118841664701e+00
8.286403157996124591e+00 -3.235557599652936656e+00
8.366853674093176707e+00 -3.237625615574633464e+00
8.447304190190225270e+00 -3.256901964368965618e+00
8.527754706287275610e+00 -3.266459248046836183e+00
8.608205222384324173e+00 -3.295975363510495360e+00
8.688655738481374513e+00 -3.309766182531725942e+00
8.769106254578423076e+00 -3.304234400393828874e+00
8.849556770675475192e+00 -3.263398182846671158e+00
8.930007286772523756e+00 -3.257096993727270462e+00
9.010457802869574095e+00 -3.275433301808826858e+00
9.090908318966622659e+00 -3.280506209610288604e+00
9.171358835063672998e+00 -3.262445803746149675e+00
9.251809351160723338e+00 -3.245250594069997163e+00
9.332259867257773678e+00 -3.228150989679401395e+00
9.412710383354822241e+00 -3.244463176462065501e+00
9.493160899451872581e+00 -3.293459352268474305e+00
9.573611415548921144e+00 -3.328912653914696929e+00
9.654061931645971484e+00 -3.346364640737300888e+00
9.734512447743021823e+00 -3.337618343042324742e+00
9.814962963840072163e+00 -3.317542799905496942e+00
9.895413479937120727e+00 -3.304126106258056250e+00
9.975863996034171066e+00 -3.306925678068926011e+00
1.005631451213121963e+01 -3.302131340015431071e+00
1.013676502822827175e+01 -3.303332929701871645e+00
1.021721554432532031e+01 -3.316085936166689674e+00
1.029766606042237065e+01 -3.339195617120990001e+00
