0.000000000000000000e+00 -1.549019599857431873e-01
8.045051609704977069e-02 -3.821663610258314026e-01
1.609010321940995414e-01 -1.090245394920220656e+00
2.413515482911492982e-01 -2.475408224524371370e+00
3.218020643881990828e-01 -3.193146176132237279e+00
4.022525804852488118e-01 -4.138116361917322017e+00
4.827030965822985964e-01 -4.951413219448107306e+00
5.631536126793483810e-01 -5.402296856386647583e+00
6.436041287763981655e-01 -5.842462458270057724e+00
7.240546448734478391e-01 -6.373910548260525388e+00
8.045051609704976237e-01 -6.952355279985590109e+00
8.849556770675472972e-01 -7.236824152877205485e+00
9.654061931645971928e-01 -7.224154342721209154e+00
1.045856709261647088e+00 -7.093927396445945277e+00
1.126307225358696762e+00 -7.009774246739220338e+00
1.206757741455746435e+00 -6.979251556652644517e+00
1.287208257552796331e+00 -7.156215153530687267e+00
1.367658773649846005e+00 -7.325050637511105300e+00
1.448109289746895678e+00 -7.280580209096956246e+00
1.528559805843945352e+00 -7.031924717224375065e+00
1.609010321940995247e+00 -6.792434442917908655e+00
1.689460838038045143e+00 -6.634503079677321224e+00
1.769911354135094594e+00 -6.485021046015271295e+00
1.850361870232144490e+00 -6.331913313647306474e+00
1.930812386329194386e+00 -6.261173281597887552e+00
2.011262902426244281e+00 -6.192318970715307458e+00
2.091713418523294177e+00 -6.093913619068903387e+00
2.172163934620343628e+00 -6.031355775515305773e+00
2.252614450717393524e+00 -6.061595931602756337e+00
2.333064966814443419e+00 -6.064906271044645969e+00
2.413515482911492871e+00 -6.040664390436778497e+00
2.493965999008542767e+00 -6.030277816085300557e+00
2.574416515105592662e+00 -6.053175487238856789e+00
2.654867031202642558e+00 -6.117477605681726160e+00
2.735317547299692009e+00 -6.137844254055765170e+00
2.815768063396741905e+00 -6.101946041701951096e+00
2.896218579493791356e+00 -6.124558365946411342e+00
2.976669095590841252e+00 -6.205534854735216932e+00
3.057119611687890703e+00 -6.301276866876603044e+00
3.137570127784940599e+00 -6.295840347743317800e+00
3.218020643881990495e+00 -6.242766187305611503e+00
3.298471159979039946e+00 -6.225233901606078923e+00
3.378921676076090286e+00 -6.170227775745427579e+00
3.459372192173139737e+00 -6.185638008628289164e+00
3.539822708270189189e+00 -6.209564790355853958e+00
3.620273224367239528e+00 -6.173615731940802043e+00
3.700723740464288980e+00 -6.147599166349962729e+00
3.781174256561339320e+00 -6.180337386377339648e+00
3.861624772658388771e+00 -6.217451864782628235e+00
3.942075288755438223e+00 -6.270426149704016794e+00
4.022525804852488562e+00 -6.298673093545412272e+00
4.102976320949538014e+00 -6.311301692975149535e+00
4.183426837046588354e+00 -6.280797241693506727e+00
4.263877353143637805e+00 -6.240421643604504354e+00
4.344327869240687257e+00 -6.242465342167591302e+00
4.424778385337737596e+00 -6.230347588741180331e+00
4.505228901434787048e+00 -6.223845267635042866e+00
4.585679417531836499e+00 -6.218106383278993121e+00
4.666129933628886839e+00 -6.223705269655807726e+00
4.746580449725936290e+00 -6.245329798803040511e+00
4.827030965822985742e+00 -6.193524948706121691e+00
4.907481481920036082e+00 -6.127927477730648498e+00
4.987931998017085533e+00 -6.118129758917613792e+00
5.068382514114135873e+00 -6.205276508720066531e+00
5.148833030211185324e+00 -6.244643883145840846e+00
5.229283546308234776e+00 -6.252107558577978175e+00
5.309734062405285115e+00 -6.195500648427120005e+00
5.390184578502334567e+00 -6.190353910392300207e+00
5.470635094599384018e+00 -6.222080407950977055e+00
5.551085610696433470e+00 -6.263393987811890717e+00
5.631536126793483810e+00 -6.224317946523268752e+00
5.711986642890533261e+00 -6.196060960456003741e+00
5.792437158987582713e+00 -6.203193967117475616e+00
5.872887675084633052e+00 -6.253273952938453562e+00
5.953338191181682504e+00 -6.273745201937092730e+00
6.033788707278731955e+00 -6.260600309349408477e+00
6.114239223375781407e+00 -6.214096863395827341e+00
6.194689739472831747e+00 -6.218515132072633733e+00
6.275140255569881198e+00 -6.305216622669122195e+00
6.355590771666931538e+00 -6.365551541076403197e+00
6.436041287763980989e+00 -6.330701712027063444e+00
6.516491803861030441e+00 -6.292129643191679556e+00
6.596942319958079892e+00 -6.247356922162515147e+00
6.677392836055131120e+00 -6.238365767164134823e+00
6.757843352152180572e+00 -6.263841949103079898e+00
6.838293868249230023e+00 -6.272568887560200146e+00
6.918744384346279475e+00 -6.270036057314112732e+00
6.999194900443328926e+00 -6.298817707340550243e+00
7.079645416540378378e+00 -6.338498561143332211e+00
7.160095932637429605e+00 -6.436363768875765778e+00
7.240546448734479057e+00 -6.478716333558330653e+00
7.320996964831528508e+00 -6.442519682113595714e+00
7.401447480928577960e+00 -6.394946819449889297e+00
7.481897997025627411e+00 -6.375592912254977485e+00
7.562348513122678639e+00 -6.375196234664379347e+00
7.642799029219728091e+00 -6.382380999844290415e+00
7.723249545316777542e+00 -6.400430033868844681e+00
7.803700061413826994e+00 -6.390424277454402002e+00
7.884150577510876445e+00 -6.363679965750018930e+00
7.964601093607927673e+00 -6.405995277888573369e+00
8.045051609704977125e+00 -6.489279467636967169e+00
8.125502125802025688e+00 -6.553088475370476118e+00
8.205952641899076028e+00 -6.568788645758019129e+00
8.286403157996124591e+00 -6.530334248127869223e+00
8.366853674093176707e+00 -6.492094130886844283e+00
8.447304190190225270e+00 -6.465493096033958942e+00
8.527754706287275610e+00 -6.429331443192703333e+00
8.608205222384324173e+00 -6.484540210948487982e+00
8.688655738481374513e+00 -6.536485419451047107e+00
8.769106254578423076e+00 -6.574658366207355442e+00
8.849556770675475192e+00 -6.602433297065822160e+00
8.930007286772523756e+00 -6.610696184647264495e+00
9.010457802869574095e+00 -6.610416291057298110e+00
9.090908318966622659e+00 -6.556744175423964371e+00
9.171358835063672998e+00 -6.538447877647612039e+00
9.251809351160723338e+00 -6.520209659123202606e+00
9.332259867257773678e+00 -6.476245774375438913e+00
9.412710383354822241e+00 -6.491697055007689343e+00
9.493160899451872581e+00 -6.530263187386490031e+00
9.573611415548921144e+00 -6.520785505762568768e+00
9.654061931645971484e+00 -6.547774292826758824e+00
9.734512447743021823e+00 -6.580756825426727019e+00
9.814962963840072163e+00 -6.614628471479271354e+00
9.895413479937120727e+00 -6.623864416503432828e+00
9.975863996034171066e+00 -6.630882627457476808e+00
1.005631451213121963e+01 -6.662598163656491934e+00
1.013676502822827175e+01 -6.680606537293913405e+00
1.021721554432532031e+01 -6.706879098581979726e+00
1.029766606042237065e+01 -6.730567205947364684e+00
