0.000000000000000000e+00 -1.549019599857431873e-01
8.045051609704977069e-02 -1.915233345573691126e-01
1.609010321940995414e-01 -5.408292809068717677e-01
2.413515482911492982e-01 -1.578904873523453212e+00
3.218020643881990828e-01 -2.190801561066399561e+00
4.022525804852488118e-01 -2.459488871548188627e+00
4.827030965822985964e-01 -2.791172553500059994e+00
5.631536126793483810e-01 -3.076561467108689385e+00
6.436041287763981655e-01 -3.128160784640731773e+00
7.240546448734478391e-01 -3.236772176995047268e+00
8.045051609704976237e-01 -3.473174371147968564e+00
8.849556770675472972e-01 -3.685898033633165483e+00
9.654061931645971928e-01 -3.683309973532587822e+00
1.045856709261647088e+00 -3.602104275405184186e+00
1.126307225358696762e+00 -3.589419152235754584e+00
1.206757741455746435e+00 -3.626930696549448996e+00
1.287208257552796331e+00 -3.669929730326624728e+00
1.367658773649846005e+00 -3.698492833326641804e+00
1.448109289746895678e+00 -3.681568084482333969e+00
1.528559805843945352e+00 -3.610553512277957733e+00
1.609010321940995247e+00 -3.526094035837367358e+00
1.689460838038045143e+00 -3.464208500716442263e+00
1.769911354135094594e+00 -3.399386297252581901e+00
1.850361870232144490e+00 -3.264534730050764999e+00
1.930812386329194386e+00 -3.151814674872889910e+00
2.011262902426244281e+00 -3.102761503524642084e+00
2.091713418523294177e+00 -3.083224685123297171e+00
2.172163934620343628e+00 -3.077117251214025906e+00
2.252614450717393524e+00 -3.099766767506002108e+00
2.333064966814443419e+00 -3.105243731333134249e+00
2.413515482911492871e+00 -3.094707154989973841e+00
2.493965999008542767e+00 -3.078515301123108561e+00
2.574416515105592662e+00 -3.059199968509640932e+00
2.654867031202642558e+00 -3.077291202851306195e+00
2.735317547299692009e+00 -3.110809940684860386e+00
2.815768063396741905e+00 -3.158368570017943355e+00
2.896218579493791356e+00 -3.193328395453010504e+00
2.976669095590841252e+00 -3.154010429233204071e+00
3.057119611687890703e+00 -3.073506222193367332e+00
3.137570127784940599e+00 -3.039794562192434935e+00
3.218020643881990495e+00 -3.063487469374498229e+00
3.298471159979039946e+00 -3.103286144321328877e+00
3.378921676076090286e+00 -3.118125366759560979e+00
3.459372192173139737e+00 -3.113189645744877776e+00
3.539822708270189189e+00 -3.097248867893082735e+00
3.620273224367239528e+00 -3.061654905954430461e+00
3.700723740464288980e+00 -3.010704786178718617e+00
3.781174256561339320e+00 -3.008722358960501886e+00
3.861624772658388771e+00 -3.064102902767105174e+00
3.942075288755438223e+00 -3.110800779502127522e+00
4.022525804852488562e+00 -3.138413865240397005e+00
4.102976320949538014e+00 -3.157276596545682601e+00
4.183426837046588354e+00 -3.160378113058039506e+00
4.263877353143637805e+00 -3.129792780762578275e+00
4.344327869240687257e+00 -3.087670849815035812e+00
4.424778385337737596e+00 -3.068437457613353736e+00
4.505228901434787048e+00 -3.091135059407013941e+00
4.585679417531836499e+00 -3.108390826101941951e+00
4.666129933628886839e+00 -3.112180439127294473e+00
4.746580449725936290e+00 -3.110287549947703845e+00
4.827030965822985742e+00 -3.104706590552491985e+00
4.907481481920036082e+00 -3.129697043107185994e+00
4.987931998017085533e+00 -3.157136905780881797e+00
5.068382514114135873e+00 -3.160750997946179641e+00
5.148833030211185324e+00 -3.154343646619732322e+00
5.229283546308234776e+00 -3.137385411619536324e+00
5.309734062405285115e+00 -3.108012914531253834e+00
5.390184578502334567e+00 -3.107247784918874878e+00
5.470635094599384018e+00 -3.116862546627175767e+00
5.551085610696433470e+00 -3.135730536685544134e+00
5.631536126793483810e+00 -3.125863379177351575e+00
5.711986642890533261e+00 -3.137967167538885604e+00
5.792437158987582713e+00 -3.144537731051515017e+00
5.872887675084633052e+00 -3.154286917630464426e+00
5.953338191181682504e+00 -3.152457217266975142e+00
6.033788707278731955e+00 -3.156025645594219053e+00
6.114239223375781407e+00 -3.145796069252565719e+00
6.194689739472831747e+00 -3.143761405066999970e+00
6.275140255569881198e+00 -3.138611561144625028e+00
6.355590771666931538e+00 -3.124165675299547029e+00
6.436041287763980989e+00 -3.129237950148426428e+00
6.516491803861030441e+00 -3.153464096412584627e+00
6.596942319958079892e+00 -3.156836641089283191e+00
6.677392836055131120e+00 -3.151930863767867574e+00
6.757843352152180572e+00 -3.148089700834750371e+00
6.838293868249230023e+00 -3.160904791474818065e+00
6.918744384346279475e+00 -3.204542891601298571e+00
6.999194900443328926e+00 -3.260561654743152626e+00
7.079645416540378378e+00 -3.279318953251066926e+00
7.160095932637429605e+00 -3.261242179014021136e+00
7.240546448734479057e+00 -3.227125285582384429e+00
7.320996964831528508e+00 -3.213637858797103508e+00
7.401447480928577960e+00 -3.203900277856817969e+00
7.481897997025627411e+00 -3.195844650156293376e+00
7.562348513122678639e+00 -3.201231291936357248e+00
7.642799029219728091e+00 -3.222334711498781257e+00
7.723249545316777542e+00 -3.211529076709297215e+00
7.803700061413826994e+00 -3.176812770731430646e+00
7.884150577510876445e+00 -3.143351411824323094e+00
7.964601093607927673e+00 -3.130028289754941628e+00
8.045051609704977125e+00 -3.143657370901729919e+00
8.125502125802025688e+00 -3.159824392810613780e+00
8.205952641899076028e+00 -3.181167241586444039e+00
8.286403157996124591e+00 -3.190808233335233446e+00
8.366853674093176707e+00 -3.193796826722724802e+00
8.447304190190225270e+00 -3.208293702319749752e+00
8.527754706287275610e+00 -3.219041434310322192e+00
8.608205222384324173e+00 -3.214340922328511763e+00
8.688655738481374513e+00 -3.219605392603028360e+00
8.769106254578423076e+00 -3.243704654768570617e+00
8.849556770675475192e+00 -3.240813997058354268e+00
8.930007286772523756e+00 -3.239509934340620401e+00
9.010457802869574095e+00 -3.236720054361029941e+00
9.090908318966622659e+00 -3.239253446980929763e+00
9.171358835063672998e+00 -3.233024375035387532e+00
9.251809351160723338e+00 -3.229175383601464056e+00
9.332259867257773678e+00 -3.234056014572655346e+00
9.412710383354822241e+00 -3.234655725953996530e+00
9.493160899451872581e+00 -3.231569765772257519e+00
9.573611415548921144e+00 -3.239846181337386444e+00
9.654061931645971484e+00 -3.259698170460918032e+00
9.734512447743021823e+00 -3.265400449684223716e+00
9.814962963840072163e+00 -3.256100081900024534e+00
9.895413479937120727e+00 -3.275809886771122503e+00
9.975863996034171066e+00 -3.288631917630639112e+00
1.005631451213121963e+01 -3.295425016448094269e+00
1.013676502822827175e+01 -3.293873026049645159e+00
1.021721554432532031e+01 -3.299190288360301260e+00
1.029766606042237065e+01 -3.285234668894243537e+00
