0.000000000000000000e+00 -1.549019599857431873e-01
8.045051609704977069e-02 -2.038284858789122245e-01
1.609010321940995414e-01 -5.618820293974517988e-01
2.413515482911492982e-01 -1.291625655024339903e+00
3.218020643881990828e-01 -1.613128859945024862e+00
4.022525804852488118e-01 -2.179032270682322636e+00
4.827030965822985964e-01 -2.733171341450530534e+00
5.631536126793483810e-01 -2.916531915243658624e+00
6.436041287763981655e-01 -3.106352791112300338e+00
7.240546448734478391e-01 -3.223344865089827760e+00
8.045051609704976237e-01 -3.337515562014853998e+00
8.849556770675472972e-01 -3.516220694141336978e+00
9.654061931645971928e-01 -3.571731293137329288e+00
1.045856709261647088e+00 -3.560920714412559640e+00
1.126307225358696762e+00 -3.553722074862818658e+00
1.206757741455746435e+00 -3.546491338785936698e+00
1.287208257552796331e+00 -3.545872476192926115e+00
1.367658773649846005e+00 -3.590330109594696228e+00
1.448109289746895678e+00 -3.612416584898383132e+00
1.528559805843945352e+00 -3.508556801459547625e+00
1.609010321940995247e+00 -3.406607867514491517e+00
1.689460838038045143e+00 -3.364572338732192414e+00
1.769911354135094594e+00 -3.328908142826997096e+00
1.850361870232144490e+00 -3.231632721566731536e+00
1.930812386329194386e+00 -3.159569355926702183e+00
2.011262902426244281e+00 -3.093313957661756763e+00
2.091713418523294177e+00 -3.045439281107008789e+00
2.172163934620343628e+00 -3.045356934664837922e+00
2.252614450717393524e+00 -3.063283738146612034e+00
2.333064966814443419e+00 -3.032076165565066095e+00
2.413515482911492871e+00 -3.045897522387911227e+00
2.493965999008542767e+00 -3.085309752565797314e+00
2.574416515105592662e+00 -3.139631522291176147e+00
2.654867031202642558e+00 -3.167717739905297591e+00
2.735317547299692009e+00 -3.180061684237950992e+00
2.815768063396741905e+00 -3.179093350372559801e+00
2.896218579493791356e+00 -3.186458636245178777e+00
2.976669095590841252e+00 -3.201456033674073609e+00
3.057119611687890703e+00 -3.194249057825308213e+00
3.137570127784940599e+00 -3.186416240740464367e+00
3.218020643881990495e+00 -3.179582634204352054e+00
3.298471159979039946e+00 -3.152794547048659801e+00
3.378921676076090286e+00 -3.081069039810343746e+00
3.459372192173139737e+00 -3.053851790524579002e+00
3.539822708270189189e+00 -3.065966764592184202e+00
3.620273224367239528e+00 -3.066533145199028532e+00
3.700723740464288980e+00 -3.069182227727508483e+00
3.781174256561339320e+00 -3.088555368000359458e+00
3.861624772658388771e+00 -3.138026992929489278e+00
3.942075288755438223e+00 -3.170108963805243540e+00
4.022525804852488562e+00 -3.177975556129745360e+00
4.102976320949538014e+00 -3.155918264104670357e+00
4.183426837046588354e+00 -3.142208150178043446e+00
4.263877353143637805e+00 -3.148675178211336245e+00
4.344327869240687257e+00 -3.168131372069472373e+00
4.424778385337737596e+00 -3.165941220126339939e+00
4.505228901434787048e+00 -3.131270995573411042e+00
4.585679417531836499e+00 -3.112026465165822042e+00
4.666129933628886839e+00 -3.099086925823237859e+00
4.746580449725936290e+00 -3.094256726184106299e+00
4.827030965822985742e+00 -3.093549860715118172e+00
4.907481481920036082e+00 -3.110302443283452067e+00
4.987931998017085533e+00 -3.156014365130969779e+00
5.068382514114135873e+00 -3.171780321737605934e+00
5.148833030211185324e+00 -3.154325571377996518e+00
5.229283546308234776e+00 -3.138108150366487159e+00
5.309734062405285115e+00 -3.150320525712465791e+00
5.390184578502334567e+00 -3.139820734161583804e+00
5.470635094599384018e+00 -3.116454680746592043e+00
5.551085610696433470e+00 -3.113190459843902413e+00
5.631536126793483810e+00 -3.124996136933839264e+00
5.711986642890533261e+00 -3.129630364809755871e+00
5.792437158987582713e+00 -3.145219580090768297e+00
5.872887675084633052e+00 -3.174658849529993887e+00
5.953338191181682504e+00 -3.169158568293793721e+00
6.033788707278731955e+00 -3.162721595790709550e+00
6.114239223375781407e+00 -3.159218471287331909e+00
6.194689739472831747e+00 -3.173232549228513832e+00
6.275140255569881198e+00 -3.198455752307093558e+00
6.355590771666931538e+00 -3.235217976086502301e+00
6.436041287763980989e+00 -3.274574058043914881e+00
6.516491803861030441e+00 -3.262267528443417497e+00
6.596942319958079892e+00 -3.221864601073392897e+00
6.677392836055131120e+00 -3.239613499423200427e+00
6.757843352152180572e+00 -3.269906467936856576e+00
6.838293868249230023e+00 -3.266605150242349875e+00
6.918744384346279475e+00 -3.240802470230216503e+00
6.999194900443328926e+00 -3.215306717516742907e+00
7.079645416540378378e+00 -3.199818531646064113e+00
7.160095932637429605e+00 -3.183100970682805286e+00
7.240546448734479057e+00 -3.159426967231462324e+00
7.320996964831528508e+00 -3.154302082223175319e+00
7.401447480928577960e+00 -3.170363269675612106e+00
7.481897997025627411e+00 -3.185505339394941515e+00
7.562348513122678639e+00 -3.181809704772174729e+00
7.642799029219728091e+00 -3.176186125627171286e+00
7.723249545316777542e+00 -3.174748226919416716e+00
7.803700061413826994e+00 -3.179595999438166398e+00
7.884150577510876445e+00 -3.196136187991579281e+00
7.964601093607927673e+00 -3.208293628869425707e+00
8.045051609704977125e+00 -3.230068947289839176e+00
8.125502125802025688e+00 -3.246839687421228859e+00
8.205952641899076028e+00 -3.253954504411675774e+00
8.286403157996124591e+00 -3.246894731069937645e+00
8.366853674093176707e+00 -3.234325368156063973e+00
8.447304190190225270e+00 -3.215058819961879699e+00
8.527754706287275610e+00 -3.232470439925931416e+00
8.608205222384324173e+00 -3.272508086376558101e+00
8.688655738481374513e+00 -3.290263172347255516e+00
8.769106254578423076e+00 -3.282895111054188853e+00
8.849556770675475192e+00 -3.259970045828300300e+00
8.930007286772523756e+00 -3.246074300832927584e+00
9.010457802869574095e+00 -3.271483513328729220e+00
9.090908318966622659e+00 -3.308852712494778192e+00
9.171358835063672998e+00 -3.311796414691734025e+00
9.251809351160723338e+00 -3.304547126944543223e+00
9.332259867257773678e+00 -3.321489691771616126e+00
9.412710383354822241e+00 -3.351986586439860361e+00
9.493160899451872581e+00 -3.314253071422392782e+00
9.573611415548921144e+00 -3.279711267485563742e+00
9.654061931645971484e+00 -3.294565102084691777e+00
9.734512447743021823e+00 -3.331652863480417892e+00
9.814962963840072163e+00 -3.338394336660631900e+00
9.895413479937120727e+00 -3.320747343774361315e+00
9.975863996034171066e+00 -3.307912005577679615e+00
1.005631451213121963e+01 -3.301965422768056602e+00
1.013676502822827175e+01 -3.298551342125064512e+00
1.021721554432532031e+01 -3.320211385124909764e+00
1.029766606042237065e+01 -3.337054169112482871e+00
