0.000000000000000000e+00 -1.549019599857431873e-01
8.045051609704977069e-02 -1.917050669724945644e-01
1.609010321940995414e-01 -4.987942042307598745e-01
2.413515482911492982e-01 -1.106560599470389317e+00
3.218020643881990828e-01 -1.551652104877517591e+00
4.022525804852488118e-01 -1.989686556956809627e+00
4.827030965822985964e-01 -2.349599463665343002e+00
5.631536126793483810e-01 -2.706509872199373667e+00
6.436041287763981655e-01 -2.940958932521734681e+00
7.240546448734478391e-01 -3.056177216995027646e+00
8.045051609704976237e-01 -3.166248564831091183e+00
8.849556770675472972e-01 -3.320649471318942059e+00
9.654061931645971928e-01 -3.394838893332597252e+00
1.045856709261647088e+00 -3.378565058543280930e+00
1.126307225358696762e+00 -3.356145299392703230e+00
1.206757741455746435e+00 -3.377060920024402613e+00
1.287208257552796331e+00 -3.406674114337588932e+00
1.367658773649846005e+00 -3.437347148918272310e+00
1.448109289746895678e+00 -3.388720675458384513e+00
1.528559805843945352e+00 -3.265607455763722911e+00
1.609010321940995247e+00 -3.135182134120604758e+00
1.689460838038045143e+00 -3.128030024716452306e+00
1.769911354135094594e+00 -3.117044744168731008e+00
1.850361870232144490e+00 -3.098628599307637455e+00
1.930812386329194386e+00 -3.069020882344987822e+00
2.011262902426244281e+00 -3.031853197947678158e+00
2.091713418523294177e+00 -2.923880967828483168e+00
2.172163934620343628e+00 -2.846908355402931967e+00
2.252614450717393524e+00 -2.812589444245199299e+00
2.333064966814443419e+00 -2.814126748200497019e+00
2.413515482911492871e+00 -2.855624440193483160e+00
2.493965999008542767e+00 -2.861678272392983224e+00
2.574416515105592662e+00 -2.858794489278669637e+00
2.654867031202642558e+00 -2.898646005167526241e+00
2.735317547299692009e+00 -2.950557664777665234e+00
2.815768063396741905e+00 -2.986898825372264810e+00
2.896218579493791356e+00 -2.994564096241539630e+00
2.976669095590841252e+00 -2.951008797514353077e+00
3.057119611687890703e+00 -2.930236454411175195e+00
3.137570127784940599e+00 -2.954204456280045132e+00
3.218020643881990495e+00 -2.965605103830128542e+00
3.298471159979039946e+00 -2.943241321876142624e+00
3.378921676076090286e+00 -2.905686192263721601e+00
3.459372192173139737e+00 -2.912514130226091513e+00
3.539822708270189189e+00 -2.950925426957213826e+00
3.620273224367239528e+00 -2.952383165155696432e+00
3.700723740464288980e+00 -2.927099151709483316e+00
3.781174256561339320e+00 -2.913153576014928525e+00
3.861624772658388771e+00 -2.873982869288346453e+00
3.942075288755438223e+00 -2.813198431378989728e+00
4.022525804852488562e+00 -2.801086977672321066e+00
4.102976320949538014e+00 -2.833010023881314066e+00
4.183426837046588354e+00 -2.868517533050880530e+00
4.263877353143637805e+00 -2.881349002264661952e+00
4.344327869240687257e+00 -2.904999075706473199e+00
4.424778385337737596e+00 -2.914952647992665735e+00
4.505228901434787048e+00 -2.919600127426934311e+00
4.585679417531836499e+00 -2.908007638882311507e+00
4.666129933628886839e+00 -2.933938014395874649e+00
4.746580449725936290e+00 -2.977640583154042453e+00
4.827030965822985742e+00 -2.970853183425941957e+00
4.907481481920036082e+00 -2.971732163525420134e+00
4.987931998017085533e+00 -2.986978628019289594e+00
5.068382514114135873e+00 -2.991276136775093075e+00
5.148833030211185324e+00 -2.962939410791141981e+00
5.229283546308234776e+00 -2.940782625542732287e+00
5.309734062405285115e+00 -2.953290016240019522e+00
5.390184578502334567e+00 -2.991647663091008713e+00
5.470635094599384018e+00 -3.024904220017207379e+00
5.551085610696433470e+00 -3.037822312488768439e+00
5.631536126793483810e+00 -3.004371441382938546e+00
5.711986642890533261e+00 -2.981276933814336338e+00
5.792437158987582713e+00 -2.991030153855035234e+00
5.872887675084633052e+00 -3.008161831191924040e+00
5.953338191181682504e+00 -2.995345058044384334e+00
6.033788707278731955e+00 -2.978158194230940303e+00
6.114239223375781407e+00 -2.993715760874680942e+00
6.194689739472831747e+00 -3.016383754393642924e+00
6.275140255569881198e+00 -3.044749717931619859e+00
6.355590771666931538e+00 -3.004724942461695747e+00
6.436041287763980989e+00 -2.973801744653672419e+00
6.516491803861030441e+00 -2.990376010578675636e+00
6.596942319958079892e+00 -2.998607289663171027e+00
6.677392836055131120e+00 -2.996560834821829999e+00
6.757843352152180572e+00 -3.012519490457600035e+00
6.838293868249230023e+00 -3.031742413548495385e+00
6.918744384346279475e+00 -3.050734420086317567e+00
6.999194900443328926e+00 -3.034408684068967244e+00
7.079645416540378378e+00 -3.013827380494598085e+00
7.160095932637429605e+00 -3.026118649901967217e+00
7.240546448734479057e+00 -3.063769683101718488e+00
7.320996964831528508e+00 -3.096271123242383183e+00
7.401447480928577960e+00 -3.082723314100604295e+00
7.481897997025627411e+00 -3.075593420300509973e+00
7.562348513122678639e+00 -3.077581122243430833e+00
7.642799029219728091e+00 -3.055579849609599830e+00
7.723249545316777542e+00 -3.014263465557121879e+00
7.803700061413826994e+00 -2.983876561176801001e+00
7.884150577510876445e+00 -2.977581150176556779e+00
7.964601093607927673e+00 -3.008917922709608117e+00
8.045051609704977125e+00 -3.056742898921813278e+00
8.125502125802025688e+00 -3.079238590076931015e+00
8.205952641899076028e+00 -3.079296467669688564e+00
8.286403157996124591e+00 -3.068653476292149129e+00
8.366853674093176707e+00 -3.086422307226085238e+00
8.447304190190225270e+00 -3.110972105344697702e+00
8.527754706287275610e+00 -3.108438953209171185e+00
8.608205222384324173e+00 -3.092311019413702233e+00
8.688655738481374513e+00 -3.093656109876742555e+00
8.769106254578423076e+00 -3.107267248885253519e+00
8.849556770675475192e+00 -3.109465119875750805e+00
8.930007286772523756e+00 -3.086466057839587496e+00
9.010457802869574095e+00 -3.091018305129979993e+00
9.090908318966622659e+00 -3.104017791703047813e+00
9.171358835063672998e+00 -3.116950258681980390e+00
9.251809351160723338e+00 -3.133585779584273201e+00
9.332259867257773678e+00 -3.153821114717321183e+00
9.412710383354822241e+00 -3.171984807036043463e+00
9.493160899451872581e+00 -3.155892371697830878e+00
9.573611415548921144e+00 -3.110078981468332504e+00
9.654061931645971484e+00 -3.089991813352220174e+00
9.734512447743021823e+00 -3.094807472711114116e+00
9.814962963840072163e+00 -3.104364865941403373e+00
9.895413479937120727e+00 -3.116958571699395719e+00
9.975863996034171066e+00 -3.131748218688703567e+00
1.005631451213121963e+01 -3.137261596797270347e+00
1.013676502822827175e+01 -3.134627506041729905e+00
1.021721554432532031e+01 -3.122464297380351805e+00
1.029766606042237065e+01 -3.123486424462648792e+00
