0.000000000000000000e+00 -1.549019599857431873e-01
8.045051609704977069e-02 -2.047553830322478285e-01
1.609010321940995414e-01 -5.684390914242893889e-01
2.413515482911492982e-01 -1.287469380371931038e+00
3.218020643881990828e-01 -1.536598212754789916e+00
4.022525804852488118e-01 -1.990843645496695347e+00
4.827030965822985964e-01 -2.470452479308662408e+00
5.631536126793483810e-01 -2.878014794972817647e+00
6.436041287763981655e-01 -3.093313686142725061e+00
7.240546448734478391e-01 -3.190819855909737601e+00
8.045051609704976237e-01 -3.245144498064726601e+00
8.849556770675472972e-01 -3.313292651102140773e+00
9.654061931645971928e-01 -3.378753734372904383e+00
1.045856709261647088e+00 -3.384779178467594019e+00
1.126307225358696762e+00 -3.450082661212614532e+00
1.206757741455746435e+00 -3.473613850527385694e+00
1.287208257552796331e+00 -3.418793605170190375e+00
1.367658773649846005e+00 -3.351064362261572782e+00
1.448109289746895678e+00 -3.275585125059797598e+00
1.528559805843945352e+00 -3.225630525906336032e+00
1.609010321940995247e+00 -3.199188893135158196e+00
1.689460838038045143e+00 -3.152203302161538989e+00
1.769911354135094594e+00 -3.127605538726261347e+00
1.850361870232144490e+00 -3.056833554841459133e+00
1.930812386329194386e+00 -2.992111815230266814e+00
2.011262902426244281e+00 -2.982408361219175408e+00
2.091713418523294177e+00 -2.966646126474707046e+00
2.172163934620343628e+00 -2.908999146262027047e+00
2.252614450717393524e+00 -2.862684557174319799e+00
2.333064966814443419e+00 -2.841138362951461271e+00
2.413515482911492871e+00 -2.831951631569932015e+00
2.493965999008542767e+00 -2.864007828133451561e+00
2.574416515105592662e+00 -2.906161765566359634e+00
2.654867031202642558e+00 -2.935660850188881899e+00
2.735317547299692009e+00 -2.942239026144429559e+00
2.815768063396741905e+00 -2.940595926505007451e+00
2.896218579493791356e+00 -2.939719814907321815e+00
2.976669095590841252e+00 -2.965650569077679766e+00
3.057119611687890703e+00 -2.972624519674987198e+00
3.137570127784940599e+00 -2.951048078426360632e+00
3.218020643881990495e+00 -2.941224371369627555e+00
3.298471159979039946e+00 -2.968961161310061492e+00
3.378921676076090286e+00 -2.970471339117628506e+00
3.459372192173139737e+00 -2.951878918846964517e+00
3.539822708270189189e+00 -2.957443806111609508e+00
3.620273224367239528e+00 -2.976343290525111929e+00
3.700723740464288980e+00 -2.973389503764974684e+00
3.781174256561339320e+00 -2.957745578374813888e+00
3.861624772658388771e+00 -2.951463580611866533e+00
3.942075288755438223e+00 -2.945379133298011709e+00
4.022525804852488562e+00 -2.922822340562733601e+00
4.102976320949538014e+00 -2.893345652104425625e+00
4.183426837046588354e+00 -2.912246261757664989e+00
4.263877353143637805e+00 -2.927234819593036441e+00
4.344327869240687257e+00 -2.945852990493607049e+00
4.424778385337737596e+00 -2.936185693962347187e+00
4.505228901434787048e+00 -2.886762174943089843e+00
4.585679417531836499e+00 -2.887599080331618051e+00
4.666129933628886839e+00 -2.945898059380733347e+00
4.746580449725936290e+00 -3.003179602597175979e+00
4.827030965822985742e+00 -3.037586139129051954e+00
4.907481481920036082e+00 -3.019204846947163290e+00
4.987931998017085533e+00 -2.984971356960937960e+00
5.068382514114135873e+00 -2.953300842009010996e+00
5.148833030211185324e+00 -2.925632741620949773e+00
5.229283546308234776e+00 -2.915947038338893904e+00
5.309734062405285115e+00 -2.933279799558738077e+00
5.390184578502334567e+00 -2.932536770513328950e+00
5.470635094599384018e+00 -2.906546630744298199e+00
5.551085610696433470e+00 -2.921259304851826055e+00
5.631536126793483810e+00 -2.937898206853944316e+00
5.711986642890533261e+00 -2.969456561367658232e+00
5.792437158987582713e+00 -2.981705927716792104e+00
5.872887675084633052e+00 -2.968275259203923877e+00
5.953338191181682504e+00 -2.954801530900359019e+00
6.033788707278731955e+00 -2.964196633647527612e+00
6.114239223375781407e+00 -2.973290764669779485e+00
6.194689739472831747e+00 -2.969815452720621085e+00
6.275140255569881198e+00 -2.985778378922721021e+00
6.355590771666931538e+00 -2.982923083717568868e+00
6.436041287763980989e+00 -2.975331383859067813e+00
6.516491803861030441e+00 -2.994992878855087248e+00
6.596942319958079892e+00 -3.004853345195751313e+00
6.677392836055131120e+00 -2.991834420779119874e+00
6.757843352152180572e+00 -2.980766548665155113e+00
6.838293868249230023e+00 -2.984126175868023534e+00
6.918744384346279475e+00 -2.969361572426779006e+00
6.999194900443328926e+00 -3.009091803727655723e+00
7.079645416540378378e+00 -3.040121313743880727e+00
7.160095932637429605e+00 -3.035973420226803832e+00
7.240546448734479057e+00 -3.012838338019554030e+00
7.320996964831528508e+00 -3.009653401798642047e+00
7.401447480928577960e+00 -2.993588571606118354e+00
7.481897997025627411e+00 -2.985393352839418313e+00
7.562348513122678639e+00 -3.015643047294051193e+00
7.642799029219728091e+00 -3.051621151955771438e+00
7.723249545316777542e+00 -3.079890959310740417e+00
7.803700061413826994e+00 -3.105480957179775459e+00
7.884150577510876445e+00 -3.083814084223952090e+00
7.964601093607927673e+00 -3.062695998200411385e+00
8.045051609704977125e+00 -3.056743548682420375e+00
8.125502125802025688e+00 -3.095815350042488756e+00
8.205952641899076028e+00 -3.126294998745191123e+00
8.286403157996124591e+00 -3.112042052392976821e+00
8.366853674093176707e+00 -3.093382962805566905e+00
8.447304190190225270e+00 -3.085770263041883954e+00
8.527754706287275610e+00 -3.069006706719878519e+00
8.608205222384324173e+00 -3.038936483246408748e+00
8.688655738481374513e+00 -3.030367902978954309e+00
8.769106254578423076e+00 -3.036449660888690172e+00
8.849556770675475192e+00 -3.050205190359983387e+00
8.930007286772523756e+00 -3.080747636185063865e+00
9.010457802869574095e+00 -3.078399201316267320e+00
9.090908318966622659e+00 -3.058109661185347328e+00
9.171358835063672998e+00 -3.071960978924825003e+00
9.251809351160723338e+00 -3.133253711297909305e+00
9.332259867257773678e+00 -3.142208131566552876e+00
9.412710383354822241e+00 -3.118194845437674001e+00
9.493160899451872581e+00 -3.115330398735574935e+00
9.573611415548921144e+00 -3.141965189346940690e+00
9.654061931645971484e+00 -3.142501096378162995e+00
9.734512447743021823e+00 -3.123850360344924582e+00
9.814962963840072163e+00 -3.129002407445669931e+00
9.895413479937120727e+00 -3.151438936508999866e+00
9.975863996034171066e+00 -3.173962320485710809e+00
1.005631451213121963e+01 -3.170270418649328903e+00
1.013676502822827175e+01 -3.155088054371098405e+00
1.021721554432532031e+01 -3.149472391989474485e+00
1.029766606042237065e+01 -3.156018849459091946e+00
