0.000000000000000000e+00 -1.549019599857431873e-01
8.045051609704977069e-02 -1.921882869230956137e-01
1.609010321940995414e-01 -4.328138159295586984e-01
2.413515482911492982e-01 -9.353574672338949014e-01
3.218020643881990828e-01 -1.373766097997895841e+00
4.022525804852488118e-01 -1.912402129058565770e+00
4.827030965822985964e-01 -2.383328691744116767e+00
5.631536126793483810e-01 -2.716052086349733496e+00
6.436041287763981655e-01 -3.031798235858442325e+00
7.240546448734478391e-01 -3.132062872801385289e+00
8.045051609704976237e-01 -3.226259653040670194e+00
8.849556770675472972e-01 -3.363379766109906299e+00
9.654061931645971928e-01 -3.432969008077975559e+00
1.045856709261647088e+00 -3.470686732114888873e+00
1.126307225358696762e+00 -3.519456265150701313e+00
1.206757741455746435e+00 -3.493113787242941193e+00
1.287208257552796331e+00 -3.494387836797173463e+00
1.367658773649846005e+00 -3.511320683953945476e+00
1.448109289746895678e+00 -3.428392801209432683e+00
1.528559805843945352e+00 -3.293646896743552155e+00
1.609010321940995247e+00 -3.188703490300177634e+00
1.689460838038045143e+00 -3.171476621724101275e+00
1.769911354135094594e+00 -3.142503000540405100e+00
1.850361870232144490e+00 -3.032867799039129064e+00
1.930812386329194386e+00 -2.956705562013809185e+00
2.011262902426244281e+00 -2.933609630938134760e+00
2.091713418523294177e+00 -2.907559571638155926e+00
2.172163934620343628e+00 -2.871489546117140801e+00
2.252614450717393524e+00 -2.862862877273421702e+00
2.333064966814443419e+00 -2.884463329758351957e+00
2.413515482911492871e+00 -2.905491905586295776e+00
2.493965999008542767e+00 -2.914578340251153143e+00
2.574416515105592662e+00 -2.917959306622943672e+00
2.654867031202642558e+00 -2.887402757512307350e+00
2.735317547299692009e+00 -2.868047925022866540e+00
2.815768063396741905e+00 -2.881666524490263726e+00
2.896218579493791356e+00 -2.882845319880749990e+00
2.976669095590841252e+00 -2.897572419108808361e+00
3.057119611687890703e+00 -2.890478083168196211e+00
3.137570127784940599e+00 -2.941317763854955025e+00
3.218020643881990495e+00 -3.006860071728208794e+00
3.298471159979039946e+00 -2.978397934980403505e+00
3.378921676076090286e+00 -2.953450424757450232e+00
3.459372192173139737e+00 -2.924087607578727877e+00
3.539822708270189189e+00 -2.906020382452793704e+00
3.620273224367239528e+00 -2.871902843487916801e+00
3.700723740464288980e+00 -2.861464494120342206e+00
3.781174256561339320e+00 -2.874016788646896359e+00
3.861624772658388771e+00 -2.907867949847971811e+00
3.942075288755438223e+00 -2.933403407276745867e+00
4.022525804852488562e+00 -2.957882923942246833e+00
4.102976320949538014e+00 -2.947652525202735241e+00
4.183426837046588354e+00 -2.913865318347268918e+00
4.263877353143637805e+00 -2.908889606674400330e+00
4.344327869240687257e+00 -2.933031300928151452e+00
4.424778385337737596e+00 -2.958563326064625798e+00
4.505228901434787048e+00 -2.946413445001817344e+00
4.585679417531836499e+00 -2.934363128138573806e+00
4.666129933628886839e+00 -2.915958358240963388e+00
4.746580449725936290e+00 -2.919972931853882070e+00
4.827030965822985742e+00 -2.917601032269031336e+00
4.907481481920036082e+00 -2.915395858427952458e+00
4.987931998017085533e+00 -2.935450291813664681e+00
5.068382514114135873e+00 -2.979465307593860413e+00
5.148833030211185324e+00 -3.031515821570061053e+00
5.229283546308234776e+00 -3.048712832892304103e+00
5.309734062405285115e+00 -3.022889353372904431e+00
5.390184578502334567e+00 -2.964570809196103607e+00
5.470635094599384018e+00 -2.920652522424233233e+00
5.551085610696433470e+00 -2.906713022524104240e+00
5.631536126793483810e+00 -2.918805112292986337e+00
5.711986642890533261e+00 -2.939465032743641792e+00
5.792437158987582713e+00 -2.954766489977995292e+00
5.872887675084633052e+00 -2.966929850223095855e+00
5.953338191181682504e+00 -2.981498871010214380e+00
6.033788707278731955e+00 -2.992734392650056474e+00
6.114239223375781407e+00 -2.984819230235575827e+00
6.194689739472831747e+00 -2.975320000490293548e+00
6.275140255569881198e+00 -2.982175905627191703e+00
6.355590771666931538e+00 -2.983290426486872704e+00
6.436041287763980989e+00 -2.990901042194072712e+00
6.516491803861030441e+00 -2.980337137704242245e+00
6.596942319958079892e+00 -2.996026713730076008e+00
6.677392836055131120e+00 -3.016832176242154162e+00
6.757843352152180572e+00 -3.016088930155782499e+00
6.838293868249230023e+00 -2.979675372869178052e+00
6.918744384346279475e+00 -2.940824429205286084e+00
6.999194900443328926e+00 -2.923081525580311535e+00
7.079645416540378378e+00 -2.913735944150953383e+00
7.160095932637429605e+00 -2.906321357328738753e+00
7.240546448734479057e+00 -2.929021457229008973e+00
7.320996964831528508e+00 -2.980131332665690191e+00
7.401447480928577960e+00 -3.048158280145674137e+00
7.481897997025627411e+00 -3.101599692882374359e+00
7.562348513122678639e+00 -3.104594639468061246e+00
7.642799029219728091e+00 -3.073464979202845893e+00
7.723249545316777542e+00 -3.042511571636321133e+00
7.803700061413826994e+00 -3.005867371509697961e+00
7.884150577510876445e+00 -2.984405333099553026e+00
7.964601093607927673e+00 -2.970816033352594143e+00
8.045051609704977125e+00 -2.979097855536137374e+00
8.125502125802025688e+00 -3.018884627470957316e+00
8.205952641899076028e+00 -3.051688189584040423e+00
8.286403157996124591e+00 -3.047863638214721949e+00
8.366853674093176707e+00 -3.028694421407760018e+00
8.447304190190225270e+00 -3.028428826639912419e+00
8.527754706287275610e+00 -3.054696187402293983e+00
8.608205222384324173e+00 -3.067594043714575225e+00
8.688655738481374513e+00 -3.074134432918099069e+00
8.769106254578423076e+00 -3.078529177354744739e+00
8.849556770675475192e+00 -3.081691827182211796e+00
8.930007286772523756e+00 -3.090129201769872491e+00
9.010457802869574095e+00 -3.081593791046142172e+00
9.090908318966622659e+00 -3.093093927281777233e+00
9.171358835063672998e+00 -3.138203102297630220e+00
9.251809351160723338e+00 -3.174593318289574029e+00
9.332259867257773678e+00 -3.174158764865108395e+00
9.412710383354822241e+00 -3.148825836884030505e+00
9.493160899451872581e+00 -3.132089158716168331e+00
9.573611415548921144e+00 -3.129751238919275202e+00
9.654061931645971484e+00 -3.112868014971867048e+00
9.734512447743021823e+00 -3.087493828982082356e+00
9.814962963840072163e+00 -3.082541971904751765e+00
9.895413479937120727e+00 -3.086208792001623458e+00
9.975863996034171066e+00 -3.107279486880344610e+00
1.005631451213121963e+01 -3.128523135908249486e+00
1.013676502822827175e+01 -3.150226708324609604e+00
1.021721554432532031e+01 -3.164767933763793728e+00
1.029766606042237065e+01 -3.161886750510427557e+00
