0.000000000000000000e+00 -1.549019599857431873e-01
8.045051609704977069e-02 -1.863059768764981916e-01
1.609010321940995414e-01 -4.993487072753157729e-01
2.413515482911492982e-01 -1.339521172343603128e+00
3.218020643881990828e-01 -1.688990389835865358e+00
4.022525804852488118e-01 -1.625439789135123769e+00
4.827030965822985964e-01 -1.638752451899158524e+00
5.631536126793483810e-01 -1.828187604254345455e+00
6.436041287763981655e-01 -1.985339679402332136e+00
7.240546448734478391e-01 -2.183361651410349769e+00
8.045051609704976237e-01 -2.385155554232532449e+00
8.849556770675472972e-01 -2.540056257935664252e+00
9.654061931645971928e-01 -2.659925787990433665e+00
1.045856709261647088e+00 -2.698780218489579497e+00
1.126307225358696762e+00 -2.749882466524254720e+00
1.206757741455746435e+00 -2.805725784750892515e+00
1.287208257552796331e+00 -2.853419555490958714e+00
1.367658773649846005e+00 -2.847732495329733826e+00
1.448109289746895678e+00 -2.811692133706809482e+00
1.528559805843945352e+00 -2.791268670249906769e+00
1.609010321940995247e+00 -2.789727332637273349e+00
1.689460838038045143e+00 -2.799442318102788541e+00
1.769911354135094594e+00 -2.761306185611331898e+00
1.850361870232144490e+00 -2.706554989000699241e+00
1.930812386329194386e+00 -2.704383362772749599e+00
2.011262902426244281e+00 -2.696414756574638361e+00
2.091713418523294177e+00 -2.671240313060530003e+00
2.172163934620343628e+00 -2.618060818085622188e+00
2.252614450717393524e+00 -2.603630343678347003e+00
2.333064966814443419e+00 -2.604949481748656925e+00
2.413515482911492871e+00 -2.589011933161749823e+00
2.493965999008542767e+00 -2.586154831424276157e+00
2.574416515105592662e+00 -2.602635708264711578e+00
2.654867031202642558e+00 -2.633853055915895247e+00
2.735317547299692009e+00 -2.647513031999612743e+00
2.815768063396741905e+00 -2.630820438007772211e+00
2.896218579493791356e+00 -2.609725613012389811e+00
2.976669095590841252e+00 -2.616196554966022880e+00
3.057119611687890703e+00 -2.637666728163252206e+00
3.137570127784940599e+00 -2.665262664552497274e+00
3.218020643881990495e+00 -2.678074006111865302e+00
3.298471159979039946e+00 -2.669884496761376624e+00
3.378921676076090286e+00 -2.643603445885624570e+00
3.459372192173139737e+00 -2.628402347403607564e+00
3.539822708270189189e+00 -2.608291747717466968e+00
3.620273224367239528e+00 -2.604111690270971113e+00
3.700723740464288980e+00 -2.601655699965379487e+00
3.781174256561339320e+00 -2.594975155317805982e+00
3.861624772658388771e+00 -2.597617956050464194e+00
3.942075288755438223e+00 -2.587083439146226738e+00
4.022525804852488562e+00 -2.590108975887052356e+00
4.102976320949538014e+00 -2.623256897657472386e+00
4.183426837046588354e+00 -2.646746784694376409e+00
4.263877353143637805e+00 -2.655042420011305193e+00
4.344327869240687257e+00 -2.640152291091597991e+00
4.424778385337737596e+00 -2.643751711492980494e+00
4.505228901434787048e+00 -2.684057791088624523e+00
4.585679417531836499e+00 -2.712587760598876852e+00
4.666129933628886839e+00 -2.713647417436959586e+00
4.746580449725936290e+00 -2.724997328510472272e+00
4.827030965822985742e+00 -2.713898797379217243e+00
4.907481481920036082e+00 -2.698771460149586243e+00
4.987931998017085533e+00 -2.707708328091273042e+00
5.068382514114135873e+00 -2.727849538528859696e+00
5.148833030211185324e+00 -2.724350318827867934e+00
5.229283546308234776e+00 -2.723919143796340592e+00
5.309734062405285115e+00 -2.719860523049989265e+00
5.390184578502334567e+00 -2.693032143116054655e+00
5.470635094599384018e+00 -2.660177039549138645e+00
5.551085610696433470e+00 -2.630055236822912423e+00
5.631536126793483810e+00 -2.610775068065199100e+00
5.711986642890533261e+00 -2.624710917514856412e+00
5.792437158987582713e+00 -2.639451944808892225e+00
5.872887675084633052e+00 -2.648004564574515385e+00
5.953338191181682504e+00 -2.656624697256643852e+00
6.033788707278731955e+00 -2.685164801770814513e+00
6.114239223375781407e+00 -2.682774510465350648e+00
6.194689739472831747e+00 -2.690076170972369951e+00
6.275140255569881198e+00 -2.708384650264056948e+00
6.355590771666931538e+00 -2.735351605836759958e+00
6.436041287763980989e+00 -2.730037403886358405e+00
6.516491803861030441e+00 -2.719400579230557558e+00
6.596942319958079892e+00 -2.743767012072800160e+00
6.677392836055131120e+00 -2.762764994806684360e+00
6.757843352152180572e+00 -2.769783806567669426e+00
6.838293868249230023e+00 -2.759356877389078644e+00
6.918744384346279475e+00 -2.743151405452876279e+00
6.999194900443328926e+00 -2.744738611235550962e+00
7.079645416540378378e+00 -2.750251098826352436e+00
7.160095932637429605e+00 -2.758464741426498001e+00
7.240546448734479057e+00 -2.771902480509076838e+00
7.320996964831528508e+00 -2.763580778729093801e+00
7.401447480928577960e+00 -2.723641370095744918e+00
7.481897997025627411e+00 -2.693008638992968606e+00
7.562348513122678639e+00 -2.704343697971497207e+00
7.642799029219728091e+00 -2.707121148554068490e+00
7.723249545316777542e+00 -2.686844328166357876e+00
7.803700061413826994e+00 -2.678008392167061658e+00
7.884150577510876445e+00 -2.700932879225513172e+00
7.964601093607927673e+00 -2.728404878146557078e+00
8.045051609704977125e+00 -2.733679934647438525e+00
8.125502125802025688e+00 -2.740229806858228478e+00
8.205952641899076028e+00 -2.752344641198633202e+00
8.286403157996124591e+00 -2.749114424585772820e+00
8.366853674093176707e+00 -2.751425593730487229e+00
8.447304190190225270e+00 -2.754568390005179168e+00
8.527754706287275610e+00 -2.762633236212138410e+00
8.608205222384324173e+00 -2.763985378904812773e+00
8.688655738481374513e+00 -2.767460219283843781e+00
8.769106254578423076e+00 -2.771218729496026434e+00
8.849556770675475192e+00 -2.774441260485748462e+00
8.930007286772523756e+00 -2.768652037658587250e+00
9.010457802869574095e+00 -2.776123571304196957e+00
9.090908318966622659e+00 -2.786149943661068829e+00
9.171358835063672998e+00 -2.775122124021682790e+00
9.251809351160723338e+00 -2.763006430655117196e+00
9.332259867257773678e+00 -2.770834438667880928e+00
9.412710383354822241e+00 -2.772574377331641138e+00
9.493160899451872581e+00 -2.750603677035009298e+00
9.573611415548921144e+00 -2.727416637129031152e+00
9.654061931645971484e+00 -2.734464374977319867e+00
9.734512447743021823e+00 -2.779826164367082963e+00
9.814962963840072163e+00 -2.795760084921676381e+00
9.895413479937120727e+00 -2.788301402465966472e+00
9.975863996034171066e+00 -2.794484147197407342e+00
1.005631451213121963e+01 -2.803837435724951366e+00
1.013676502822827175e+01 -2.824842267423471220e+00
1.021721554432532031e+01 -2.852736011022789508e+00
1.029766606042237065e+01 -2.854190199122720539e+00
