0.000000000000000000e+00 -1.549019599857431873e-01
8.045051609704977069e-02 -2.117101408283989794e-01
1.609010321940995414e-01 -6.376430392587042473e-01
2.413515482911492982e-01 -1.650698237039975647e+00
3.218020643881990828e-01 -1.564559759520196769e+00
4.022525804852488118e-01 -1.467192224991987759e+00
4.827030965822985964e-01 -1.668071890178058903e+00
5.631536126793483810e-01 -2.009219325972033232e+00
6.436041287763981655e-01 -2.109725005231344763e+00
7.240546448734478391e-01 -2.223742796119128506e+00
8.045051609704976237e-01 -2.476461955135863757e+00
8.849556770675472972e-01 -2.685174304283820756e+00
9.654061931645971928e-01 -2.723651097029628154e+00
1.045856709261647088e+00 -2.740400844313505502e+00
1.126307225358696762e+00 -2.780767875714801995e+00
1.206757741455746435e+00 -2.736813703459216374e+00
1.287208257552796331e+00 -2.694270905428175489e+00
1.367658773649846005e+00 -2.706288772544343413e+00
1.448109289746895678e+00 -2.765531379949177637e+00
1.528559805843945352e+00 -2.818858369635994787e+00
1.609010321940995247e+00 -2.768586381105951233e+00
1.689460838038045143e+00 -2.684093817386786984e+00
1.769911354135094594e+00 -2.649591137769454985e+00
1.850361870232144490e+00 -2.649265072496709728e+00
1.930812386329194386e+00 -2.644678174340889143e+00
2.011262902426244281e+00 -2.610382806749540485e+00
2.091713418523294177e+00 -2.562657349841324983e+00
2.172163934620343628e+00 -2.569795602239295818e+00
2.252614450717393524e+00 -2.627381535605101348e+00
2.333064966814443419e+00 -2.679759040979196261e+00
2.413515482911492871e+00 -2.712801463605819308e+00
2.493965999008542767e+00 -2.711494456017974120e+00
2.574416515105592662e+00 -2.627236368104572506e+00
2.654867031202642558e+00 -2.573625693742369158e+00
2.735317547299692009e+00 -2.560599582594879742e+00
2.815768063396741905e+00 -2.575633791002960304e+00
2.896218579493791356e+00 -2.609314655019957296e+00
2.976669095590841252e+00 -2.635304810291392297e+00
3.057119611687890703e+00 -2.633466900965854229e+00
3.137570127784940599e+00 -2.645720927384678234e+00
3.218020643881990495e+00 -2.687969305446494594e+00
3.298471159979039946e+00 -2.730899099666559859e+00
3.378921676076090286e+00 -2.714348650419013520e+00
3.459372192173139737e+00 -2.674543317066332637e+00
3.539822708270189189e+00 -2.639685073149702799e+00
3.620273224367239528e+00 -2.652875323764602555e+00
3.700723740464288980e+00 -2.690076631029062693e+00
3.781174256561339320e+00 -2.699898079866263068e+00
3.861624772658388771e+00 -2.679644153924766847e+00
3.942075288755438223e+00 -2.649276842082841643e+00
4.022525804852488562e+00 -2.610367688864149383e+00
4.102976320949538014e+00 -2.598332060321958625e+00
4.183426837046588354e+00 -2.619268995234909525e+00
4.263877353143637805e+00 -2.630892111458360993e+00
4.344327869240687257e+00 -2.634454789237069772e+00
4.424778385337737596e+00 -2.654779845268545380e+00
4.505228901434787048e+00 -2.667304579996489178e+00
4.585679417531836499e+00 -2.661439146881490192e+00
4.666129933628886839e+00 -2.653076191894550018e+00
4.746580449725936290e+00 -2.657318400810582126e+00
4.827030965822985742e+00 -2.648914622590353485e+00
4.907481481920036082e+00 -2.631986751982895445e+00
4.987931998017085533e+00 -2.630063929338763540e+00
5.068382514114135873e+00 -2.626386444038787626e+00
5.148833030211185324e+00 -2.624966228306614191e+00
5.229283546308234776e+00 -2.650475801915767260e+00
5.309734062405285115e+00 -2.676541878467627811e+00
5.390184578502334567e+00 -2.684497807394375712e+00
5.470635094599384018e+00 -2.677990034303155742e+00
5.551085610696433470e+00 -2.694730271841521585e+00
5.631536126793483810e+00 -2.714189181777708182e+00
5.711986642890533261e+00 -2.691942596325338943e+00
5.792437158987582713e+00 -2.664114017894551711e+00
5.872887675084633052e+00 -2.679716112681411300e+00
5.953338191181682504e+00 -2.714808028290521147e+00
6.033788707278731955e+00 -2.733810321061989512e+00
6.114239223375781407e+00 -2.734201225656873291e+00
6.194689739472831747e+00 -2.716946508956283868e+00
6.275140255569881198e+00 -2.713013097814378938e+00
6.355590771666931538e+00 -2.729910332174057874e+00
6.436041287763980989e+00 -2.730201353469270398e+00
6.516491803861030441e+00 -2.710026523149082767e+00
6.596942319958079892e+00 -2.691946994127518256e+00
6.677392836055131120e+00 -2.698332183493186154e+00
6.757843352152180572e+00 -2.729940951144100847e+00
6.838293868249230023e+00 -2.756219004336800893e+00
6.918744384346279475e+00 -2.768773468337478505e+00
6.999194900443328926e+00 -2.744478850653266466e+00
7.079645416540378378e+00 -2.727567815588420874e+00
7.160095932637429605e+00 -2.727948370095934827e+00
7.240546448734479057e+00 -2.707267615766674851e+00
7.320996964831528508e+00 -2.692538890586048339e+00
7.401447480928577960e+00 -2.698043430055966585e+00
7.481897997025627411e+00 -2.708657235075478287e+00
7.562348513122678639e+00 -2.734585305932399901e+00
7.642799029219728091e+00 -2.760752443791691491e+00
7.723249545316777542e+00 -2.771287635148713679e+00
7.803700061413826994e+00 -2.775876889275447290e+00
7.884150577510876445e+00 -2.794206432790534933e+00
7.964601093607927673e+00 -2.808075839877376190e+00
8.045051609704977125e+00 -2.807214104087728757e+00
8.125502125802025688e+00 -2.807758218999553357e+00
8.205952641899076028e+00 -2.780319793574713039e+00
8.286403157996124591e+00 -2.767670750158839788e+00
8.366853674093176707e+00 -2.779246860719982060e+00
8.447304190190225270e+00 -2.790947433731368221e+00
8.527754706287275610e+00 -2.819885728676051695e+00
8.608205222384324173e+00 -2.835456574132751761e+00
8.688655738481374513e+00 -2.822708620464418061e+00
8.769106254578423076e+00 -2.806245647341585325e+00
8.849556770675475192e+00 -2.810931197908068668e+00
8.930007286772523756e+00 -2.783462135418713679e+00
9.010457802869574095e+00 -2.763621171159845957e+00
9.090908318966622659e+00 -2.766076738959131642e+00
9.171358835063672998e+00 -2.774871136510921765e+00
9.251809351160723338e+00 -2.795377243980113224e+00
9.332259867257773678e+00 -2.828263635326379255e+00
9.412710383354822241e+00 -2.835140322896278597e+00
9.493160899451872581e+00 -2.818803830222285089e+00
9.573611415548921144e+00 -2.825507440588943542e+00
9.654061931645971484e+00 -2.819079505772438488e+00
9.734512447743021823e+00 -2.800834012850924370e+00
9.814962963840072163e+00 -2.799118023837183777e+00
9.895413479937120727e+00 -2.807835749606781839e+00
9.975863996034171066e+00 -2.827560953939231680e+00
1.005631451213121963e+01 -2.831770772330302499e+00
1.013676502822827175e+01 -2.814551254326459695e+00
1.021721554432532031e+01 -2.798914757857537072e+00
1.029766606042237065e+01 -2.806063112708710339e+00
