0.000000000000000000e+00 -1.549019599857431873e-01
8.045051609704977069e-02 -2.077579264698213857e-01
1.609010321940995414e-01 -6.198679423250555987e-01
2.413515482911492982e-01 -1.430390806749082255e+00
3.218020643881990828e-01 -1.380517440598250101e+00
4.022525804852488118e-01 -1.361619461827796362e+00
4.827030965822985964e-01 -1.524978268391131264e+00
5.631536126793483810e-01 -1.843723465193743083e+00
6.436041287763981655e-01 -2.041724723831595867e+00
7.240546448734478391e-01 -2.111845870007791781e+00
8.045051609704976237e-01 -2.214043129405191213e+00
8.849556770675472972e-01 -2.375658105133482856e+00
9.654061931645971928e-01 -2.550094631020145997e+00
1.045856709261647088e+00 -2.662117358555637470e+00
1.126307225358696762e+00 -2.741078920035958433e+00
1.206757741455746435e+00 -2.825989473614465286e+00
1.287208257552796331e+00 -2.833015505991444805e+00
1.367658773649846005e+00 -2.825463596999478355e+00
1.448109289746895678e+00 -2.827928594004805340e+00
1.528559805843945352e+00 -2.839054194852399959e+00
1.609010321940995247e+00 -2.761412047060627373e+00
1.689460838038045143e+00 -2.681665597023129344e+00
1.769911354135094594e+00 -2.630672262127732530e+00
1.850361870232144490e+00 -2.622411940098745564e+00
1.930812386329194386e+00 -2.619403868308533223e+00
2.011262902426244281e+00 -2.562469263135547237e+00
2.091713418523294177e+00 -2.512325027143036404e+00
2.172163934620343628e+00 -2.543972662535469276e+00
2.252614450717393524e+00 -2.628707264857720105e+00
2.333064966814443419e+00 -2.668958768552702310e+00
2.413515482911492871e+00 -2.648502184508949142e+00
2.493965999008542767e+00 -2.604326145973818285e+00
2.574416515105592662e+00 -2.589215370733691568e+00
2.654867031202642558e+00 -2.572800651025761720e+00
2.735317547299692009e+00 -2.554048970400143670e+00
2.815768063396741905e+00 -2.544497861747934575e+00
2.896218579493791356e+00 -2.530128198254878669e+00
2.976669095590841252e+00 -2.543551623551734586e+00
3.057119611687890703e+00 -2.560340040486227320e+00
3.137570127784940599e+00 -2.579930590921876377e+00
3.218020643881990495e+00 -2.592548094936255598e+00
3.298471159979039946e+00 -2.579470134240060997e+00
3.378921676076090286e+00 -2.551227381305389397e+00
3.459372192173139737e+00 -2.562430487805372081e+00
3.539822708270189189e+00 -2.583317975597927862e+00
3.620273224367239528e+00 -2.597162690081843195e+00
3.700723740464288980e+00 -2.610085529838917395e+00
3.781174256561339320e+00 -2.628980769031547204e+00
3.861624772658388771e+00 -2.646493893428733646e+00
3.942075288755438223e+00 -2.667780472262803571e+00
4.022525804852488562e+00 -2.702817879923619326e+00
4.102976320949538014e+00 -2.679965339377891276e+00
4.183426837046588354e+00 -2.659171695581121764e+00
4.263877353143637805e+00 -2.648928708478026639e+00
4.344327869240687257e+00 -2.650440784417964046e+00
4.424778385337737596e+00 -2.638619609223268547e+00
4.505228901434787048e+00 -2.646014264259408222e+00
4.585679417531836499e+00 -2.652861700961278935e+00
4.666129933628886839e+00 -2.663034754510096302e+00
4.746580449725936290e+00 -2.629247478024272056e+00
4.827030965822985742e+00 -2.603445348182499064e+00
4.907481481920036082e+00 -2.600696173774448727e+00
4.987931998017085533e+00 -2.628411115669200271e+00
5.068382514114135873e+00 -2.685274619970266397e+00
5.148833030211185324e+00 -2.730255296190668091e+00
5.229283546308234776e+00 -2.744148381468670905e+00
5.309734062405285115e+00 -2.742806886165714886e+00
5.390184578502334567e+00 -2.735741974112787300e+00
5.470635094599384018e+00 -2.708920332333032199e+00
5.551085610696433470e+00 -2.685150119200670371e+00
5.631536126793483810e+00 -2.686945545993570050e+00
5.711986642890533261e+00 -2.723143553531576888e+00
5.792437158987582713e+00 -2.769076185507816756e+00
5.872887675084633052e+00 -2.776594288482995498e+00
5.953338191181682504e+00 -2.756611038343440345e+00
6.033788707278731955e+00 -2.725807670803315652e+00
6.114239223375781407e+00 -2.710538676485118259e+00
6.194689739472831747e+00 -2.684959923421224914e+00
6.275140255569881198e+00 -2.647573862280185431e+00
6.355590771666931538e+00 -2.635405117577975354e+00
6.436041287763980989e+00 -2.652292380003617556e+00
6.516491803861030441e+00 -2.686428632576018050e+00
6.596942319958079892e+00 -2.733626795862545755e+00
6.677392836055131120e+00 -2.755868259225851880e+00
6.757843352152180572e+00 -2.750358301800691851e+00
6.838293868249230023e+00 -2.742665689819690389e+00
6.918744384346279475e+00 -2.734578598708234054e+00
6.999194900443328926e+00 -2.708101666106826677e+00
7.079645416540378378e+00 -2.703733467027225057e+00
7.160095932637429605e+00 -2.729268322584456286e+00
7.240546448734479057e+00 -2.748952318915710347e+00
7.320996964831528508e+00 -2.738547820286662215e+00
7.401447480928577960e+00 -2.753837834098965320e+00
7.481897997025627411e+00 -2.763241113967377593e+00
7.562348513122678639e+00 -2.753660994972153997e+00
7.642799029219728091e+00 -2.729515501118553011e+00
7.723249545316777542e+00 -2.729517309221345833e+00
7.803700061413826994e+00 -2.752644666323775802e+00
7.884150577510876445e+00 -2.776918694397518816e+00
7.964601093607927673e+00 -2.769538881895059035e+00
8.045051609704977125e+00 -2.754831904882278693e+00
8.125502125802025688e+00 -2.761426348133583897e+00
8.205952641899076028e+00 -2.785384420001554950e+00
8.286403157996124591e+00 -2.790958006223487775e+00
8.366853674093176707e+00 -2.780916850946087759e+00
8.447304190190225270e+00 -2.791131872658070723e+00
8.527754706287275610e+00 -2.833659861656321777e+00
8.608205222384324173e+00 -2.843506246498620715e+00
8.688655738481374513e+00 -2.818701591595393463e+00
8.769106254578423076e+00 -2.806526190617838701e+00
8.849556770675475192e+00 -2.820066561575925501e+00
8.930007286772523756e+00 -2.844138837568780165e+00
9.010457802869574095e+00 -2.834440709772681810e+00
9.090908318966622659e+00 -2.816906817267009977e+00
9.171358835063672998e+00 -2.820167121748218264e+00
9.251809351160723338e+00 -2.819473117582605770e+00
9.332259867257773678e+00 -2.825982735257429379e+00
9.412710383354822241e+00 -2.825282850534790224e+00
9.493160899451872581e+00 -2.803852770056988852e+00
9.573611415548921144e+00 -2.803308901173140466e+00
9.654061931645971484e+00 -2.808880500570531069e+00
9.734512447743021823e+00 -2.813140102910799190e+00
9.814962963840072163e+00 -2.809554497001598872e+00
9.895413479937120727e+00 -2.809602951220245615e+00
9.975863996034171066e+00 -2.805969914447200342e+00
1.005631451213121963e+01 -2.815450445323591122e+00
1.013676502822827175e+01 -2.848913678198570665e+00
1.021721554432532031e+01 -2.872575202079826973e+00
1.029766606042237065e+01 -2.889690184629905456e+00
