0.000000000000000000e+00 -1.549019599857431873e-01
8.045051609704977069e-02 -1.895919470838260679e-01
1.609010321940995414e-01 -4.948616361686845599e-01
2.413515482911492982e-01 -1.418654235907874650e+00
3.218020643881990828e-01 -2.266415210115155343e+00
4.022525804852488118e-01 -2.763110370058983634e+00
4.827030965822985964e-01 -3.271123128318918383e+00
5.631536126793483810e-01 -3.436979227887664301e+00
6.436041287763981655e-01 -3.436886515495826799e+00
7.240546448734478391e-01 -3.426222917757951070e+00
8.045051609704976237e-01 -3.524774602447780847e+00
8.849556770675472972e-01 -3.714977137706619637e+00
9.654061931645971928e-01 -3.830619579965105714e+00
1.045856709261647088e+00 -3.830675802169397404e+00
1.126307225358696762e+00 -3.761203333044293995e+00
1.206757741455746435e+00 -3.735467322653483357e+00
1.287208257552796331e+00 -3.793255355064211631e+00
1.367658773649846005e+00 -3.869844275270220457e+00
1.448109289746895678e+00 -3.890287920327494486e+00
1.528559805843945352e+00 -3.819875389554213019e+00
1.609010321940995247e+00 -3.693783807916553030e+00
1.689460838038045143e+00 -3.622820704713041629e+00
1.769911354135094594e+00 -3.568986571872419855e+00
1.850361870232144490e+00 -3.462360319667013187e+00
1.930812386329194386e+00 -3.333198616880892473e+00
2.011262902426244281e+00 -3.301706125428614857e+00
2.091713418523294177e+00 -3.331864850200354056e+00
2.172163934620343628e+00 -3.357670247869627200e+00
2.252614450717393524e+00 -3.331409099151117381e+00
2.333064966814443419e+00 -3.327043225016077077e+00
2.413515482911492871e+00 -3.352698732706708373e+00
2.493965999008542767e+00 -3.385671740100137495e+00
2.574416515105592662e+00 -3.398444820146700351e+00
2.654867031202642558e+00 -3.402443520009413636e+00
2.735317547299692009e+00 -3.382999996309177693e+00
2.815768063396741905e+00 -3.359963160826075157e+00
2.896218579493791356e+00 -3.340435169110920199e+00
2.976669095590841252e+00 -3.339511308366562847e+00
3.057119611687890703e+00 -3.385996397924702972e+00
3.137570127784940599e+00 -3.433626071249212597e+00
3.218020643881990495e+00 -3.427098348614733503e+00
3.298471159979039946e+00 -3.377901568486370465e+00
3.378921676076090286e+00 -3.363723965494302970e+00
3.459372192173139737e+00 -3.397280233756555745e+00
3.539822708270189189e+00 -3.389359385091479826e+00
3.620273224367239528e+00 -3.345183815858781440e+00
3.700723740464288980e+00 -3.301610579052586480e+00
3.781174256561339320e+00 -3.274653069117032800e+00
3.861624772658388771e+00 -3.235789396111983685e+00
3.942075288755438223e+00 -3.236938946072638768e+00
4.022525804852488562e+00 -3.311123449087714388e+00
4.102976320949538014e+00 -3.351260004877306464e+00
4.183426837046588354e+00 -3.335494451985933306e+00
4.263877353143637805e+00 -3.332345318733132444e+00
4.344327869240687257e+00 -3.353087328633292064e+00
4.424778385337737596e+00 -3.345858565665160267e+00
4.505228901434787048e+00 -3.336021842670961579e+00
4.585679417531836499e+00 -3.352603524788461797e+00
4.666129933628886839e+00 -3.370045845183658795e+00
4.746580449725936290e+00 -3.366206008370165481e+00
4.827030965822985742e+00 -3.339019874747013006e+00
4.907481481920036082e+00 -3.301609208343663227e+00
4.987931998017085533e+00 -3.305610356394558469e+00
5.068382514114135873e+00 -3.313972411338125923e+00
5.148833030211185324e+00 -3.323594751938419467e+00
5.229283546308234776e+00 -3.311177734224464153e+00
5.309734062405285115e+00 -3.305182344099202751e+00
5.390184578502334567e+00 -3.317921263819892275e+00
5.470635094599384018e+00 -3.320874300374339949e+00
5.551085610696433470e+00 -3.321131592674833044e+00
5.631536126793483810e+00 -3.339397660662603684e+00
5.711986642890533261e+00 -3.334538479584545634e+00
5.792437158987582713e+00 -3.370945589809796861e+00
5.872887675084633052e+00 -3.417103867303592502e+00
5.953338191181682504e+00 -3.437414114474501847e+00
6.033788707278731955e+00 -3.414661352901433578e+00
6.114239223375781407e+00 -3.389135666920713774e+00
6.194689739472831747e+00 -3.378923627552291364e+00
6.275140255569881198e+00 -3.381242759747278726e+00
6.355590771666931538e+00 -3.406296643222376908e+00
6.436041287763980989e+00 -3.398585005400010850e+00
6.516491803861030441e+00 -3.368218086126111288e+00
6.596942319958079892e+00 -3.359744288058055250e+00
6.677392836055131120e+00 -3.379549739875328029e+00
6.757843352152180572e+00 -3.392153884041040346e+00
6.838293868249230023e+00 -3.376222742187128922e+00
6.918744384346279475e+00 -3.365689993311596240e+00
6.999194900443328926e+00 -3.362919768180663738e+00
7.079645416540378378e+00 -3.368413350222805303e+00
7.160095932637429605e+00 -3.388222873162127780e+00
7.240546448734479057e+00 -3.386426802046765605e+00
7.320996964831528508e+00 -3.377994402386776507e+00
7.401447480928577960e+00 -3.390180519658390068e+00
7.481897997025627411e+00 -3.414375895166771979e+00
7.562348513122678639e+00 -3.419752969402348963e+00
7.642799029219728091e+00 -3.435334736539048084e+00
7.723249545316777542e+00 -3.461623558111307730e+00
7.803700061413826994e+00 -3.472241727775781328e+00
7.884150577510876445e+00 -3.467613081437099343e+00
7.964601093607927673e+00 -3.468739580995007454e+00
8.045051609704977125e+00 -3.461858256957107471e+00
8.125502125802025688e+00 -3.447282997904844049e+00
8.205952641899076028e+00 -3.433336358025952606e+00
8.286403157996124591e+00 -3.448108116529142730e+00
8.366853674093176707e+00 -3.463678699491408164e+00
8.447304190190225270e+00 -3.477838087479249385e+00
8.527754706287275610e+00 -3.491698043483713931e+00
8.608205222384324173e+00 -3.495657962455182677e+00
8.688655738481374513e+00 -3.502444128836347037e+00
8.769106254578423076e+00 -3.514541319428040378e+00
8.849556770675475192e+00 -3.484865432066514224e+00
8.930007286772523756e+00 -3.454914365219129646e+00
9.010457802869574095e+00 -3.455191688751535040e+00
9.090908318966622659e+00 -3.469564930342388553e+00
9.171358835063672998e+00 -3.480635602543894258e+00
9.251809351160723338e+00 -3.488188597860316875e+00
9.332259867257773678e+00 -3.499048270586620824e+00
9.412710383354822241e+00 -3.492628665620366668e+00
9.493160899451872581e+00 -3.475101367492428484e+00
9.573611415548921144e+00 -3.461394630671573935e+00
9.654061931645971484e+00 -3.471399396318126218e+00
9.734512447743021823e+00 -3.498871053056737512e+00
9.814962963840072163e+00 -3.492707920692238233e+00
9.895413479937120727e+00 -3.457083696512317061e+00
9.975863996034171066e+00 -3.455667760706945923e+00
1.005631451213121963e+01 -3.482608417424299052e+00
1.013676502822827175e+01 -3.508917650992601445e+00
1.021721554432532031e+01 -3.530583383601577641e+00
1.029766606042237065e+01 -3.561560964219804060e+00
