0.000000000000000000e+00 -1.549019599857431873e-01
8.045051609704977069e-02 -1.828204086305915688e-01
1.609010321940995414e-01 -4.432777736529415202e-01
2.413515482911492982e-01 -8.990386446829965461e-01
3.218020643881990828e-01 -1.370840463737581283e+00
4.022525804852488118e-01 -2.061370248490973278e+00
4.827030965822985964e-01 -3.277224918145685173e+00
5.631536126793483810e-01 -3.333467167229962058e+00
6.436041287763981655e-01 -3.299899249829724379e+00
7.240546448734478391e-01 -3.361781068671899408e+00
8.045051609704976237e-01 -3.500879147260738566e+00
8.849556770675472972e-01 -3.730664807948369521e+00
9.654061931645971928e-01 -3.866075682473500308e+00
1.045856709261647088e+00 -3.887829202979651733e+00
1.126307225358696762e+00 -3.923506995990508894e+00
1.206757741455746435e+00 -3.990998745331946651e+00
1.287208257552796331e+00 -4.030471551037703826e+00
1.367658773649846005e+00 -3.941334794147766107e+00
1.448109289746895678e+00 -3.793598141801841184e+00
1.528559805843945352e+00 -3.685812786880290570e+00
1.609010321940995247e+00 -3.632069622238624618e+00
1.689460838038045143e+00 -3.633290032538272651e+00
1.769911354135094594e+00 -3.532020269666968471e+00
1.850361870232144490e+00 -3.456261971692158763e+00
1.930812386329194386e+00 -3.392067969077449341e+00
2.011262902426244281e+00 -3.304918761068885047e+00
2.091713418523294177e+00 -3.226500945666851639e+00
2.172163934620343628e+00 -3.222951839693591225e+00
2.252614450717393524e+00 -3.246980346861575217e+00
2.333064966814443419e+00 -3.288935632614431448e+00
2.413515482911492871e+00 -3.298219091635126166e+00
2.493965999008542767e+00 -3.289044287074071704e+00
2.574416515105592662e+00 -3.312548657557832676e+00
2.654867031202642558e+00 -3.333592079825606902e+00
2.735317547299692009e+00 -3.321435563446295980e+00
2.815768063396741905e+00 -3.297329292503206055e+00
2.896218579493791356e+00 -3.296369860614253078e+00
2.976669095590841252e+00 -3.362072385705626054e+00
3.057119611687890703e+00 -3.419799113655307199e+00
3.137570127784940599e+00 -3.459427903648484293e+00
3.218020643881990495e+00 -3.497829534111685401e+00
3.298471159979039946e+00 -3.489297456129048403e+00
3.378921676076090286e+00 -3.440844759388766771e+00
3.459372192173139737e+00 -3.407682977017003623e+00
3.539822708270189189e+00 -3.385327259525814370e+00
3.620273224367239528e+00 -3.332194768660616813e+00
3.700723740464288980e+00 -3.306732096639020124e+00
3.781174256561339320e+00 -3.302010871145931947e+00
3.861624772658388771e+00 -3.321787345497300148e+00
3.942075288755438223e+00 -3.337971828196466095e+00
4.022525804852488562e+00 -3.372795935590018335e+00
4.102976320949538014e+00 -3.363252756647737929e+00
4.183426837046588354e+00 -3.309966671934939875e+00
4.263877353143637805e+00 -3.290823160870089747e+00
4.344327869240687257e+00 -3.307400649067473442e+00
4.424778385337737596e+00 -3.329504758657671371e+00
4.505228901434787048e+00 -3.347931622217594327e+00
4.585679417531836499e+00 -3.380765868687247711e+00
4.666129933628886839e+00 -3.399749659842971283e+00
4.746580449725936290e+00 -3.405298920530991591e+00
4.827030965822985742e+00 -3.409746357729287691e+00
4.907481481920036082e+00 -3.385886957037049338e+00
4.987931998017085533e+00 -3.345622174084944334e+00
5.068382514114135873e+00 -3.330128950446445746e+00
5.148833030211185324e+00 -3.343874734637396262e+00
5.229283546308234776e+00 -3.368039464128410376e+00
5.309734062405285115e+00 -3.342331775946960182e+00
5.390184578502334567e+00 -3.329451397234982846e+00
5.470635094599384018e+00 -3.324439117484181860e+00
5.551085610696433470e+00 -3.350343647581930817e+00
5.631536126793483810e+00 -3.381764547679077637e+00
5.711986642890533261e+00 -3.400246995703095187e+00
5.792437158987582713e+00 -3.377375011431587470e+00
5.872887675084633052e+00 -3.339788559200503215e+00
5.953338191181682504e+00 -3.317793316029189477e+00
6.033788707278731955e+00 -3.317234876724773684e+00
6.114239223375781407e+00 -3.347618733393257884e+00
6.194689739472831747e+00 -3.394218824899445153e+00
6.275140255569881198e+00 -3.427114024830270278e+00
6.355590771666931538e+00 -3.429267757010755258e+00
6.436041287763980989e+00 -3.434327263615699177e+00
6.516491803861030441e+00 -3.432346698974383159e+00
6.596942319958079892e+00 -3.424940373779653768e+00
6.677392836055131120e+00 -3.412380212527729384e+00
6.757843352152180572e+00 -3.409804663367845823e+00
6.838293868249230023e+00 -3.386031547858601165e+00
6.918744384346279475e+00 -3.373158951719383847e+00
6.999194900443328926e+00 -3.380743996909293614e+00
7.079645416540378378e+00 -3.397728479203689034e+00
7.160095932637429605e+00 -3.395015191014831846e+00
7.240546448734479057e+00 -3.412990894772545136e+00
7.320996964831528508e+00 -3.465617917094979017e+00
7.401447480928577960e+00 -3.474095369091914964e+00
7.481897997025627411e+00 -3.442500865640956142e+00
7.562348513122678639e+00 -3.400167644219327823e+00
7.642799029219728091e+00 -3.388028643735915502e+00
7.723249545316777542e+00 -3.383709353371687545e+00
7.803700061413826994e+00 -3.396496934900465448e+00
7.884150577510876445e+00 -3.429083284500106021e+00
7.964601093607927673e+00 -3.438653258989261996e+00
8.045051609704977125e+00 -3.425728625985989595e+00
8.125502125802025688e+00 -3.402109821210499874e+00
8.205952641899076028e+00 -3.390276504440883798e+00
8.286403157996124591e+00 -3.382942888213325006e+00
8.366853674093176707e+00 -3.394289550395193977e+00
8.447304190190225270e+00 -3.414014559165082563e+00
8.527754706287275610e+00 -3.429467580322687503e+00
8.608205222384324173e+00 -3.431748517751368688e+00
8.688655738481374513e+00 -3.437239281046452266e+00
8.769106254578423076e+00 -3.441597394746446437e+00
8.849556770675475192e+00 -3.427450827613343964e+00
8.930007286772523756e+00 -3.412484866267793571e+00
9.010457802869574095e+00 -3.411944596820633002e+00
9.090908318966622659e+00 -3.425986700085397629e+00
9.171358835063672998e+00 -3.451965794772411833e+00
9.251809351160723338e+00 -3.458717423146580927e+00
9.332259867257773678e+00 -3.455429864094410775e+00
9.412710383354822241e+00 -3.451772359276503277e+00
9.493160899451872581e+00 -3.447102714447241922e+00
9.573611415548921144e+00 -3.448784226392354935e+00
9.654061931645971484e+00 -3.463372399051288131e+00
9.734512447743021823e+00 -3.460766686040587015e+00
9.814962963840072163e+00 -3.451120631825571827e+00
9.895413479937120727e+00 -3.451301454952723891e+00
9.975863996034171066e+00 -3.460442088947464079e+00
1.005631451213121963e+01 -3.477856945778135422e+00
1.013676502822827175e+01 -3.489491512798114758e+00
1.021721554432532031e+01 -3.490363500114620710e+00
1.029766606042237065e+01 -3.494130841509757612e+00
