0.000000000000000000e+00 -1.549019599857431873e-01
8.045051609704977069e-02 -2.043042591821320197e-01
1.609010321940995414e-01 -5.298967856694929424e-01
2.413515482911492982e-01 -1.664785265515355439e+00
3.218020643881990828e-01 -2.473570342162127567e+00
4.022525804852488118e-01 -2.819104202917484425e+00
4.827030965822985964e-01 -3.325969734486377671e+00
5.631536126793483810e-01 -3.551952525989376497e+00
6.436041287763981655e-01 -3.760273028438823051e+00
7.240546448734478391e-01 -3.874972239437253663e+00
8.045051609704976237e-01 -3.945605851023926025e+00
8.849556770675472972e-01 -4.044768329637694393e+00
9.654061931645971928e-01 -4.099392634819674086e+00
1.045856709261647088e+00 -4.007329379365082822e+00
1.126307225358696762e+00 -3.937486673423141958e+00
1.206757741455746435e+00 -3.898156345191963634e+00
1.287208257552796331e+00 -3.886714595999852584e+00
1.367658773649846005e+00 -3.879824045883035311e+00
1.448109289746895678e+00 -3.847166689367836234e+00
1.528559805843945352e+00 -3.775624257457789401e+00
1.609010321940995247e+00 -3.687065110820185510e+00
1.689460838038045143e+00 -3.610840418693922249e+00
1.769911354135094594e+00 -3.564669644447131525e+00
1.850361870232144490e+00 -3.514278883698604972e+00
1.930812386329194386e+00 -3.430018563839167367e+00
2.011262902426244281e+00 -3.351299938698324432e+00
2.091713418523294177e+00 -3.314942861495121740e+00
2.172163934620343628e+00 -3.291532790294880773e+00
2.252614450717393524e+00 -3.275921018816942532e+00
2.333064966814443419e+00 -3.229047254909806597e+00
2.413515482911492871e+00 -3.200133936091070108e+00
2.493965999008542767e+00 -3.224369010466760166e+00
2.574416515105592662e+00 -3.253552074262353599e+00
2.654867031202642558e+00 -3.270234260860702236e+00
2.735317547299692009e+00 -3.289685534495840891e+00
2.815768063396741905e+00 -3.308879953174288957e+00
2.896218579493791356e+00 -3.325199264526967013e+00
2.976669095590841252e+00 -3.348493177382692032e+00
3.057119611687890703e+00 -3.364113776175160719e+00
3.137570127784940599e+00 -3.371648492322307789e+00
3.218020643881990495e+00 -3.333413869968443244e+00
3.298471159979039946e+00 -3.282799770953958252e+00
3.378921676076090286e+00 -3.242414896812311653e+00
3.459372192173139737e+00 -3.245279364613244066e+00
3.539822708270189189e+00 -3.317268192656222414e+00
3.620273224367239528e+00 -3.382379761963282494e+00
3.700723740464288980e+00 -3.421674707596503051e+00
3.781174256561339320e+00 -3.388360557281875796e+00
3.861624772658388771e+00 -3.328253968112408590e+00
3.942075288755438223e+00 -3.277286227860937817e+00
4.022525804852488562e+00 -3.289764111997672380e+00
4.102976320949538014e+00 -3.317011603094641270e+00
4.183426837046588354e+00 -3.342315006528798094e+00
4.263877353143637805e+00 -3.348635031307719778e+00
4.344327869240687257e+00 -3.347145954826352465e+00
4.424778385337737596e+00 -3.365436511843080236e+00
4.505228901434787048e+00 -3.379000628445210097e+00
4.585679417531836499e+00 -3.352212448121739019e+00
4.666129933628886839e+00 -3.322380854849953824e+00
4.746580449725936290e+00 -3.320327927307113569e+00
4.827030965822985742e+00 -3.342539138521813946e+00
4.907481481920036082e+00 -3.366518867053630792e+00
4.987931998017085533e+00 -3.393763702635688162e+00
5.068382514114135873e+00 -3.401495615824145169e+00
5.148833030211185324e+00 -3.383855759849991429e+00
5.229283546308234776e+00 -3.356070377367886159e+00
5.309734062405285115e+00 -3.346867210362724609e+00
5.390184578502334567e+00 -3.369332745636613335e+00
5.470635094599384018e+00 -3.405547649372729690e+00
5.551085610696433470e+00 -3.419350545945742059e+00
5.631536126793483810e+00 -3.387768446664706445e+00
5.711986642890533261e+00 -3.340513766386622674e+00
5.792437158987582713e+00 -3.329831390290309390e+00
5.872887675084633052e+00 -3.361938920033920031e+00
5.953338191181682504e+00 -3.386552818662072362e+00
6.033788707278731955e+00 -3.388456820424483595e+00
6.114239223375781407e+00 -3.370060571985833864e+00
6.194689739472831747e+00 -3.327007794244912553e+00
6.275140255569881198e+00 -3.321702193628540023e+00
6.355590771666931538e+00 -3.350803270798486277e+00
6.436041287763980989e+00 -3.384724928636616781e+00
6.516491803861030441e+00 -3.410796719057047177e+00
6.596942319958079892e+00 -3.425502772248195882e+00
6.677392836055131120e+00 -3.416179724545300278e+00
6.757843352152180572e+00 -3.416363537035785658e+00
6.838293868249230023e+00 -3.418728796860282415e+00
6.918744384346279475e+00 -3.415437580965845932e+00
6.999194900443328926e+00 -3.403526863463192331e+00
7.079645416540378378e+00 -3.397741171166700269e+00
7.160095932637429605e+00 -3.387089411564395025e+00
7.240546448734479057e+00 -3.376634491467548127e+00
7.320996964831528508e+00 -3.376783066101275654e+00
7.401447480928577960e+00 -3.368727709357574707e+00
7.481897997025627411e+00 -3.383433973577470777e+00
7.562348513122678639e+00 -3.409632782879163493e+00
7.642799029219728091e+00 -3.432751850901621271e+00
7.723249545316777542e+00 -3.451787106837875818e+00
7.803700061413826994e+00 -3.450547619970932178e+00
7.884150577510876445e+00 -3.437124162149336914e+00
7.964601093607927673e+00 -3.434145934389983168e+00
8.045051609704977125e+00 -3.446855845505137239e+00
8.125502125802025688e+00 -3.442271387520357440e+00
8.205952641899076028e+00 -3.434559223296503649e+00
8.286403157996124591e+00 -3.433493704925644874e+00
8.366853674093176707e+00 -3.456016703602974971e+00
8.447304190190225270e+00 -3.483975095086405016e+00
8.527754706287275610e+00 -3.482923426525601496e+00
8.608205222384324173e+00 -3.485828411685644390e+00
8.688655738481374513e+00 -3.464331105855769088e+00
8.769106254578423076e+00 -3.443691283046169449e+00
8.849556770675475192e+00 -3.436471796929997602e+00
8.930007286772523756e+00 -3.434193292782949936e+00
9.010457802869574095e+00 -3.447299141957932189e+00
9.090908318966622659e+00 -3.458515493068774926e+00
9.171358835063672998e+00 -3.481025549188097923e+00
9.251809351160723338e+00 -3.493312113393274299e+00
9.332259867257773678e+00 -3.486164166007156506e+00
9.412710383354822241e+00 -3.457073087941735068e+00
9.493160899451872581e+00 -3.451748831303688370e+00
9.573611415548921144e+00 -3.463994349323563426e+00
9.654061931645971484e+00 -3.471484132019436508e+00
9.734512447743021823e+00 -3.475276700155672582e+00
9.814962963840072163e+00 -3.503125753253812036e+00
9.895413479937120727e+00 -3.542607078165617374e+00
9.975863996034171066e+00 -3.567869919305548976e+00
1.005631451213121963e+01 -3.549967110225494604e+00
1.013676502822827175e+01 -3.540863764161430893e+00
1.021721554432532031e+01 -3.570397029926795973e+00
1.029766606042237065e+01 -3.577318210443902746e+00
