0.000000000000000000e+00 -1.549019599857431873e-01
8.045051609704977069e-02 -3.876622512214793481e-01
1.609010321940995414e-01 -1.091962019550547502e+00
2.413515482911492982e-01 -2.730195879502641976e+00
3.218020643881990828e-01 -3.692995846516049951e+00
4.022525804852488118e-01 -5.037818232378628025e+00
4.827030965822985964e-01 -6.369463037449025755e+00
5.631536126793483810e-01 -6.678852603107654495e+00
6.436041287763981655e-01 -6.840700818229910496e+00
7.240546448734478391e-01 -7.094411993361201318e+00
8.045051609704976237e-01 -7.365945248398009682e+00
8.849556770675472972e-01 -7.698378887541618809e+00
9.654061931645971928e-01 -7.803737038234575429e+00
1.045856709261647088e+00 -7.822782120013859419e+00
1.126307225358696762e+00 -7.848246090581071144e+00
1.206757741455746435e+00 -7.859237962846098213e+00
1.287208257552796331e+00 -7.884591049594061651e+00
1.367658773649846005e+00 -7.840707264998688863e+00
1.448109289746895678e+00 -7.778645937463696924e+00
1.528559805843945352e+00 -7.645823636448538352e+00
1.609010321940995247e+00 -7.468341281823882127e+00
1.689460838038045143e+00 -7.339478260287490841e+00
1.769911354135094594e+00 -7.163320814887191190e+00
1.850361870232144490e+00 -7.029824949188858696e+00
1.930812386329194386e+00 -6.917770469859608085e+00
2.011262902426244281e+00 -6.813009915389476312e+00
2.091713418523294177e+00 -6.656556340375009206e+00
2.172163934620343628e+00 -6.442784167415454455e+00
2.252614450717393524e+00 -6.331291039139905763e+00
2.333064966814443419e+00 -6.376705017854822799e+00
2.413515482911492871e+00 -6.480238778985034642e+00
2.493965999008542767e+00 -6.522652728686223256e+00
2.574416515105592662e+00 -6.572664700564542883e+00
2.654867031202642558e+00 -6.602577885562357807e+00
2.735317547299692009e+00 -6.556913531700747200e+00
2.815768063396741905e+00 -6.547799265372539423e+00
2.896218579493791356e+00 -6.678381902263617498e+00
2.976669095590841252e+00 -6.791680837437785279e+00
3.057119611687890703e+00 -6.852630034563071959e+00
3.137570127784940599e+00 -6.879451432160061941e+00
3.218020643881990495e+00 -6.829627644917140472e+00
3.298471159979039946e+00 -6.792913326496850424e+00
3.378921676076090286e+00 -6.757921697309487996e+00
3.459372192173139737e+00 -6.745326185268705643e+00
3.539822708270189189e+00 -6.744597998079085777e+00
3.620273224367239528e+00 -6.663397845055930802e+00
3.700723740464288980e+00 -6.555261927203589245e+00
3.781174256561339320e+00 -6.538839755300167589e+00
3.861624772658388771e+00 -6.538219249297589464e+00
3.942075288755438223e+00 -6.518462712607997034e+00
4.022525804852488562e+00 -6.560703264298985538e+00
4.102976320949538014e+00 -6.662875803717414058e+00
4.183426837046588354e+00 -6.734613816697146760e+00
4.263877353143637805e+00 -6.789648025080760263e+00
4.344327869240687257e+00 -6.860819840974513362e+00
4.424778385337737596e+00 -6.797457977223133163e+00
4.505228901434787048e+00 -6.653853375290200489e+00
4.585679417531836499e+00 -6.553015326109568939e+00
4.666129933628886839e+00 -6.593484676829298508e+00
4.746580449725936290e+00 -6.653520861729133706e+00
4.827030965822985742e+00 -6.665199934340823695e+00
4.907481481920036082e+00 -6.684401695692667289e+00
4.987931998017085533e+00 -6.697569148230495095e+00
5.068382514114135873e+00 -6.705798906107352408e+00
5.148833030211185324e+00 -6.701985427868899059e+00
5.229283546308234776e+00 -6.709382410475107861e+00
5.309734062405285115e+00 -6.645517403491298936e+00
5.390184578502334567e+00 -6.630074745962621030e+00
5.470635094599384018e+00 -6.671493635516474896e+00
5.551085610696433470e+00 -6.743099034387490143e+00
5.631536126793483810e+00 -6.755465521783765581e+00
5.711986642890533261e+00 -6.739033013332847766e+00
5.792437158987582713e+00 -6.725273541705698577e+00
5.872887675084633052e+00 -6.774291583224708369e+00
5.953338191181682504e+00 -6.788374732607294071e+00
6.033788707278731955e+00 -6.799252692727510983e+00
6.114239223375781407e+00 -6.839316386166825801e+00
6.194689739472831747e+00 -6.924142064333932645e+00
6.275140255569881198e+00 -6.928555375270010863e+00
6.355590771666931538e+00 -6.802666553401935268e+00
6.436041287763980989e+00 -6.775071449745687424e+00
6.516491803861030441e+00 -6.862560071504698378e+00
6.596942319958079892e+00 -6.898252997630049954e+00
6.677392836055131120e+00 -6.881533039388582296e+00
6.757843352152180572e+00 -6.848609219651646818e+00
6.838293868249230023e+00 -6.818738968549971524e+00
6.918744384346279475e+00 -6.799602663332739994e+00
6.999194900443328926e+00 -6.757590543807984851e+00
7.079645416540378378e+00 -6.737202391855433348e+00
7.160095932637429605e+00 -6.772011576683043543e+00
7.240546448734479057e+00 -6.879892777025154338e+00
7.320996964831528508e+00 -6.952948303909646910e+00
7.401447480928577960e+00 -6.910506701661128126e+00
7.481897997025627411e+00 -6.874640840569640865e+00
7.562348513122678639e+00 -6.859062846716647677e+00
7.642799029219728091e+00 -6.825850094955363545e+00
7.723249545316777542e+00 -6.818078644276182487e+00
7.803700061413826994e+00 -6.832922503414058824e+00
7.884150577510876445e+00 -6.866049423913365146e+00
7.964601093607927673e+00 -6.896667459112943099e+00
8.045051609704977125e+00 -6.906547191315437928e+00
8.125502125802025688e+00 -6.921804227721589875e+00
8.205952641899076028e+00 -6.946179156339070460e+00
8.286403157996124591e+00 -6.948817500784900680e+00
8.366853674093176707e+00 -6.935910092704525631e+00
8.447304190190225270e+00 -6.935095162198757102e+00
8.527754706287275610e+00 -6.898140824282991801e+00
8.608205222384324173e+00 -6.899554160675359427e+00
8.688655738481374513e+00 -6.864263252750786748e+00
8.769106254578423076e+00 -6.831050092250871231e+00
8.849556770675475192e+00 -6.901434703275942439e+00
8.930007286772523756e+00 -7.001282998301564753e+00
9.010457802869574095e+00 -7.018991121560445912e+00
9.090908318966622659e+00 -6.955739600495819630e+00
9.171358835063672998e+00 -6.894982653109723358e+00
9.251809351160723338e+00 -6.895325308811427689e+00
9.332259867257773678e+00 -6.870359378441853515e+00
9.412710383354822241e+00 -6.859744584770021802e+00
9.493160899451872581e+00 -6.914890474900385442e+00
9.573611415548921144e+00 -6.971775264389431292e+00
9.654061931645971484e+00 -7.055607172022738460e+00
9.734512447743021823e+00 -7.072404541400607592e+00
9.814962963840072163e+00 -7.045613715020487611e+00
9.895413479937120727e+00 -7.068754613588202673e+00
9.975863996034171066e+00 -7.108083789749263026e+00
1.005631451213121963e+01 -7.095901692480857115e+00
1.013676502822827175e+01 -7.078941815307802976e+00
1.021721554432532031e+01 -7.122787438011241257e+00
1.029766606042237065e+01 -7.119310835393759085e+00
