0.000000000000000000e+00 -1.549019599857431873e-01
8.045051609704977069e-02 -1.893040315786293781e-01
1.609010321940995414e-01 -4.760613375273999304e-01
2.413515482911492982e-01 -9.587256780315605020e-01
3.218020643881990828e-01 -1.128875494346998076e+00
4.022525804852488118e-01 -1.285292125929076823e+00
4.827030965822985964e-01 -1.601419813585851948e+00
5.631536126793483810e-01 -1.896308410117191423e+00
6.436041287763981655e-01 -2.033446426351190439e+00
7.240546448734478391e-01 -2.186733126380575598e+00
8.045051609704976237e-01 -2.440919494076559282e+00
8.849556770675472972e-01 -2.697698257711613312e+00
9.654061931645971928e-01 -2.819772079667670628e+00
1.045856709261647088e+00 -2.804207144388277229e+00
1.126307225358696762e+00 -2.739662576637797553e+00
1.206757741455746435e+00 -2.730363804594852173e+00
1.287208257552796331e+00 -2.728107890880486774e+00
1.367658773649846005e+00 -2.702026328127820065e+00
1.448109289746895678e+00 -2.721451392946683256e+00
1.528559805843945352e+00 -2.721451677032738381e+00
1.609010321940995247e+00 -2.691158868309731389e+00
1.689460838038045143e+00 -2.631467756741640240e+00
1.769911354135094594e+00 -2.625028300460879205e+00
1.850361870232144490e+00 -2.643990376848652346e+00
1.930812386329194386e+00 -2.609698796553517219e+00
2.011262902426244281e+00 -2.592895928427130681e+00
2.091713418523294177e+00 -2.615422713744093741e+00
2.172163934620343628e+00 -2.589856404672799428e+00
2.252614450717393524e+00 -2.550606106243389348e+00
2.333064966814443419e+00 -2.535407975827520755e+00
2.413515482911492871e+00 -2.574129222720991095e+00
2.493965999008542767e+00 -2.594715743402156605e+00
2.574416515105592662e+00 -2.537914049535960448e+00
2.654867031202642558e+00 -2.494442012908168582e+00
2.735317547299692009e+00 -2.519700108243201786e+00
2.815768063396741905e+00 -2.591730651331694002e+00
2.896218579493791356e+00 -2.656757148610536134e+00
2.976669095590841252e+00 -2.665973318872120856e+00
3.057119611687890703e+00 -2.650676523113252081e+00
3.137570127784940599e+00 -2.649639452374685789e+00
3.218020643881990495e+00 -2.671056607361030011e+00
3.298471159979039946e+00 -2.665090069479258084e+00
3.378921676076090286e+00 -2.643548293399327509e+00
3.459372192173139737e+00 -2.634474297423581746e+00
3.539822708270189189e+00 -2.628691904319493844e+00
3.620273224367239528e+00 -2.636185773459294612e+00
3.700723740464288980e+00 -2.651881078944825276e+00
3.781174256561339320e+00 -2.674051430322080591e+00
3.861624772658388771e+00 -2.623678753283971155e+00
3.942075288755438223e+00 -2.573253385555703598e+00
4.022525804852488562e+00 -2.573107310216285804e+00
4.102976320949538014e+00 -2.594050343354462829e+00
4.183426837046588354e+00 -2.624433251919740417e+00
4.263877353143637805e+00 -2.678452395224429683e+00
4.344327869240687257e+00 -2.712083199393708011e+00
4.424778385337737596e+00 -2.723795899037299240e+00
4.505228901434787048e+00 -2.701639852757840021e+00
4.585679417531836499e+00 -2.685054854988441431e+00
4.666129933628886839e+00 -2.630213882299427652e+00
4.746580449725936290e+00 -2.582152462982957530e+00
4.827030965822985742e+00 -2.573391807320581481e+00
4.907481481920036082e+00 -2.584255486286692438e+00
4.987931998017085533e+00 -2.573897882193970865e+00
5.068382514114135873e+00 -2.561366556123968241e+00
5.148833030211185324e+00 -2.576731794218363625e+00
5.229283546308234776e+00 -2.600010346199216116e+00
5.309734062405285115e+00 -2.617493115808798176e+00
5.390184578502334567e+00 -2.630673629520591028e+00
5.470635094599384018e+00 -2.637962526424852072e+00
5.551085610696433470e+00 -2.634265209175184808e+00
5.631536126793483810e+00 -2.631794448699357858e+00
5.711986642890533261e+00 -2.666760258270097328e+00
5.792437158987582713e+00 -2.678878392250086282e+00
5.872887675084633052e+00 -2.651249727408663492e+00
5.953338191181682504e+00 -2.643402438696856205e+00
6.033788707278731955e+00 -2.650919804947790670e+00
6.114239223375781407e+00 -2.657019707649535434e+00
6.194689739472831747e+00 -2.666571606630147251e+00
6.275140255569881198e+00 -2.693395914302956662e+00
6.355590771666931538e+00 -2.706733007889961851e+00
6.436041287763980989e+00 -2.688901637907270548e+00
6.516491803861030441e+00 -2.675043871397767337e+00
6.596942319958079892e+00 -2.653196834003930249e+00
6.677392836055131120e+00 -2.640618886976302981e+00
6.757843352152180572e+00 -2.608060112792458973e+00
6.838293868249230023e+00 -2.596605368025963312e+00
6.918744384346279475e+00 -2.629557484395753431e+00
6.999194900443328926e+00 -2.678746189149496804e+00
7.079645416540378378e+00 -2.714085642977817070e+00
7.160095932637429605e+00 -2.735381282732775698e+00
7.240546448734479057e+00 -2.752897108184506614e+00
7.320996964831528508e+00 -2.752562147823837790e+00
7.401447480928577960e+00 -2.747171218086954969e+00
7.481897997025627411e+00 -2.726779254394815499e+00
7.562348513122678639e+00 -2.702526879143405836e+00
7.642799029219728091e+00 -2.706776920720018520e+00
7.723249545316777542e+00 -2.717054553039750964e+00
7.803700061413826994e+00 -2.743555456418466321e+00
7.884150577510876445e+00 -2.741776849042849129e+00
7.964601093607927673e+00 -2.727370233414087242e+00
8.045051609704977125e+00 -2.731599566406466284e+00
8.125502125802025688e+00 -2.764019268439401156e+00
8.205952641899076028e+00 -2.792359169457582002e+00
8.286403157996124591e+00 -2.791076237480192290e+00
8.366853674093176707e+00 -2.770571884953440200e+00
8.447304190190225270e+00 -2.753459831461626983e+00
8.527754706287275610e+00 -2.732957323625091917e+00
8.608205222384324173e+00 -2.748146904694273029e+00
8.688655738481374513e+00 -2.764253960465512971e+00
8.769106254578423076e+00 -2.761295388725031330e+00
8.849556770675475192e+00 -2.740960794713379389e+00
8.930007286772523756e+00 -2.717115672153258110e+00
9.010457802869574095e+00 -2.690067825187818951e+00
9.090908318966622659e+00 -2.696273568925370068e+00
9.171358835063672998e+00 -2.704367754786731748e+00
9.251809351160723338e+00 -2.705269079437208735e+00
9.332259867257773678e+00 -2.719534506636522408e+00
9.412710383354822241e+00 -2.755428139002849885e+00
9.493160899451872581e+00 -2.751364335370656278e+00
9.573611415548921144e+00 -2.756147623830985882e+00
9.654061931645971484e+00 -2.783551076641406663e+00
9.734512447743021823e+00 -2.813393760765075857e+00
9.814962963840072163e+00 -2.813166773912662677e+00
9.895413479937120727e+00 -2.811749623720229518e+00
9.975863996034171066e+00 -2.832563400486020733e+00
1.005631451213121963e+01 -2.841982027260073540e+00
1.013676502822827175e+01 -2.837894594978184859e+00
1.021721554432532031e+01 -2.825219912384277166e+00
1.029766606042237065e+01 -2.815579400982174185e+00
