0.000000000000000000e+00 -1.549019599857431873e-01
8.045051609704977069e-02 -3.866300542122081407e-01
1.609010321940995414e-01 -1.120882221773707998e+00
2.413515482911492982e-01 -2.424353570534007574e+00
3.218020643881990828e-01 -2.580917775346505127e+00
4.022525804852488118e-01 -2.639597416514656736e+00
4.827030965822985964e-01 -3.115713817900333193e+00
5.631536126793483810e-01 -3.904766228998267419e+00
6.436041287763981655e-01 -4.396676889291875057e+00
7.240546448734478391e-01 -4.770198865728069393e+00
8.045051609704976237e-01 -5.278032124757673138e+00
8.849556770675472972e-01 -5.541487586090817707e+00
9.654061931645971928e-01 -5.449104319895007542e+00
1.045856709261647088e+00 -5.337086554661889970e+00
1.126307225358696762e+00 -5.400753726361587681e+00
1.206757741455746435e+00 -5.472693885454389395e+00
1.287208257552796331e+00 -5.530454369838072815e+00
1.367658773649846005e+00 -5.541178952121404322e+00
1.448109289746895678e+00 -5.580708484461363916e+00
1.528559805843945352e+00 -5.639625600899782043e+00
1.609010321940995247e+00 -5.609262370841150869e+00
1.689460838038045143e+00 -5.517615179648389656e+00
1.769911354135094594e+00 -5.322410945124295800e+00
1.850361870232144490e+00 -5.269928358268034074e+00
1.930812386329194386e+00 -5.357100115812227337e+00
2.011262902426244281e+00 -5.421445603783467959e+00
2.091713418523294177e+00 -5.392855965688918118e+00
2.172163934620343628e+00 -5.428195676678081227e+00
2.252614450717393524e+00 -5.381827917934299599e+00
2.333064966814443419e+00 -5.320410252621094571e+00
2.413515482911492871e+00 -5.296247399279577550e+00
2.493965999008542767e+00 -5.294900401516998478e+00
2.574416515105592662e+00 -5.235111501580997029e+00
2.654867031202642558e+00 -5.208138242838748155e+00
2.735317547299692009e+00 -5.175955877564110352e+00
2.815768063396741905e+00 -5.084664424242546943e+00
2.896218579493791356e+00 -5.020605175455994384e+00
2.976669095590841252e+00 -5.061479322644645507e+00
3.057119611687890703e+00 -5.197183654703426470e+00
3.137570127784940599e+00 -5.316671583558591152e+00
3.218020643881990495e+00 -5.301825129735226128e+00
3.298471159979039946e+00 -5.225100011989350257e+00
3.378921676076090286e+00 -5.221411434771201954e+00
3.459372192173139737e+00 -5.272950218581232917e+00
3.539822708270189189e+00 -5.245633179214020281e+00
3.620273224367239528e+00 -5.206105697274221455e+00
3.700723740464288980e+00 -5.255683576857050454e+00
3.781174256561339320e+00 -5.288614261299789732e+00
3.861624772658388771e+00 -5.310380523500081829e+00
3.942075288755438223e+00 -5.370199951965072493e+00
4.022525804852488562e+00 -5.379177376704147306e+00
4.102976320949538014e+00 -5.368952738412305692e+00
4.183426837046588354e+00 -5.392481461875650695e+00
4.263877353143637805e+00 -5.423155076995374912e+00
4.344327869240687257e+00 -5.453336072705132764e+00
4.424778385337737596e+00 -5.410254684674630887e+00
4.505228901434787048e+00 -5.259976527589044437e+00
4.585679417531836499e+00 -5.168463682310427743e+00
4.666129933628886839e+00 -5.156083695068623740e+00
4.746580449725936290e+00 -5.166968957716282951e+00
4.827030965822985742e+00 -5.141322764782431776e+00
4.907481481920036082e+00 -5.156199404357750815e+00
4.987931998017085533e+00 -5.188635435117720185e+00
5.068382514114135873e+00 -5.157199632298075542e+00
5.148833030211185324e+00 -5.146669855442604913e+00
5.229283546308234776e+00 -5.217547743153139628e+00
5.309734062405285115e+00 -5.303719457786590041e+00
5.390184578502334567e+00 -5.283295305104280359e+00
5.470635094599384018e+00 -5.275100377662509388e+00
5.551085610696433470e+00 -5.243821951519937130e+00
5.631536126793483810e+00 -5.249253534926529241e+00
5.711986642890533261e+00 -5.338044607063508806e+00
5.792437158987582713e+00 -5.367497607902261159e+00
5.872887675084633052e+00 -5.284533492303439495e+00
5.953338191181682504e+00 -5.209395102255594878e+00
6.033788707278731955e+00 -5.207792799424222352e+00
6.114239223375781407e+00 -5.262336924012670281e+00
6.194689739472831747e+00 -5.347480619875001118e+00
6.275140255569881198e+00 -5.435816489881681868e+00
6.355590771666931538e+00 -5.479910854256750952e+00
6.436041287763980989e+00 -5.491075984078663375e+00
6.516491803861030441e+00 -5.447855350943703989e+00
6.596942319958079892e+00 -5.412616491880681835e+00
6.677392836055131120e+00 -5.361203799895364774e+00
6.757843352152180572e+00 -5.315335328857322850e+00
6.838293868249230023e+00 -5.302702639043865851e+00
6.918744384346279475e+00 -5.282778129324423588e+00
6.999194900443328926e+00 -5.343040094165456111e+00
7.079645416540378378e+00 -5.409146753322507273e+00
7.160095932637429605e+00 -5.444682991049027976e+00
7.240546448734479057e+00 -5.516095858984757072e+00
7.320996964831528508e+00 -5.577500746534510334e+00
7.401447480928577960e+00 -5.559944931311853189e+00
7.481897997025627411e+00 -5.547105643849979728e+00
7.562348513122678639e+00 -5.513709157571223152e+00
7.642799029219728091e+00 -5.438075461546679534e+00
7.723249545316777542e+00 -5.371637739876484297e+00
7.803700061413826994e+00 -5.392002688478418015e+00
7.884150577510876445e+00 -5.426936543263463975e+00
7.964601093607927673e+00 -5.462426854421563505e+00
8.045051609704977125e+00 -5.521655402729980899e+00
8.125502125802025688e+00 -5.550886521439315935e+00
8.205952641899076028e+00 -5.574416481685060099e+00
8.286403157996124591e+00 -5.603639563824756031e+00
8.366853674093176707e+00 -5.606703497879364839e+00
8.447304190190225270e+00 -5.603479929885388344e+00
8.527754706287275610e+00 -5.602103200539092498e+00
8.608205222384324173e+00 -5.589302083633527651e+00
8.688655738481374513e+00 -5.566476480393016679e+00
8.769106254578423076e+00 -5.583148971176520980e+00
8.849556770675475192e+00 -5.557366380039143294e+00
8.930007286772523756e+00 -5.546912790970665696e+00
9.010457802869574095e+00 -5.543650555111380385e+00
9.090908318966622659e+00 -5.570806173723465982e+00
9.171358835063672998e+00 -5.545113756547048744e+00
9.251809351160723338e+00 -5.521369839342997743e+00
9.332259867257773678e+00 -5.528905303812418737e+00
9.412710383354822241e+00 -5.552342307130537336e+00
9.493160899451872581e+00 -5.611479899549332018e+00
9.573611415548921144e+00 -5.637885713902273999e+00
9.654061931645971484e+00 -5.625756576051296420e+00
9.734512447743021823e+00 -5.615503018963584836e+00
9.814962963840072163e+00 -5.591360688806863877e+00
9.895413479937120727e+00 -5.576831951004645127e+00
9.975863996034171066e+00 -5.575430594894726255e+00
1.005631451213121963e+01 -5.585782385640075454e+00
1.013676502822827175e+01 -5.562658917013918014e+00
1.021721554432532031e+01 -5.577925831304386683e+00
1.029766606042237065e+01 -5.620722211207075603e+00
