0.000000000000000000e+00 -1.549019599857431873e-01
8.045051609704977069e-02 -1.952998085301474174e-01
1.609010321940995414e-01 -5.297993228098931695e-01
2.413515482911492982e-01 -1.132551735850975350e+00
3.218020643881990828e-01 -1.297038231055260615e+00
4.022525804852488118e-01 -1.451388267108705721e+00
4.827030965822985964e-01 -1.770740996620709273e+00
5.631536126793483810e-01 -1.967288439429852875e+00
6.436041287763981655e-01 -2.133407149770421452e+00
7.240546448734478391e-01 -2.339265587471716756e+00
8.045051609704976237e-01 -2.475590222561736997e+00
8.849556770675472972e-01 -2.628062661944148726e+00
9.654061931645971928e-01 -2.720258206248407529e+00
1.045856709261647088e+00 -2.777047218745254842e+00
1.126307225358696762e+00 -2.785448720209571238e+00
1.206757741455746435e+00 -2.783624452188096399e+00
1.287208257552796331e+00 -2.772136670016764448e+00
1.367658773649846005e+00 -2.732790710528718137e+00
1.448109289746895678e+00 -2.730527058314207611e+00
1.528559805843945352e+00 -2.732794233608820011e+00
1.609010321940995247e+00 -2.684589300515455079e+00
1.689460838038045143e+00 -2.638438913180634504e+00
1.769911354135094594e+00 -2.636213622888399222e+00
1.850361870232144490e+00 -2.644809613722996833e+00
1.930812386329194386e+00 -2.608350992762933362e+00
2.011262902426244281e+00 -2.581915786954388725e+00
2.091713418523294177e+00 -2.588913598608567401e+00
2.172163934620343628e+00 -2.606288291369411425e+00
2.252614450717393524e+00 -2.601322662030839172e+00
2.333064966814443419e+00 -2.606962562552402662e+00
2.413515482911492871e+00 -2.633127853433596233e+00
2.493965999008542767e+00 -2.656870657483834108e+00
2.574416515105592662e+00 -2.623796186051099433e+00
2.654867031202642558e+00 -2.591818546396089218e+00
2.735317547299692009e+00 -2.616724416586678537e+00
2.815768063396741905e+00 -2.672666376473030958e+00
2.896218579493791356e+00 -2.700341558262932207e+00
2.976669095590841252e+00 -2.715123202359584820e+00
3.057119611687890703e+00 -2.712044560375764135e+00
3.137570127784940599e+00 -2.684900362409686991e+00
3.218020643881990495e+00 -2.631577437007655007e+00
3.298471159979039946e+00 -2.608121835491493012e+00
3.378921676076090286e+00 -2.623308569814543745e+00
3.459372192173139737e+00 -2.642731021544566516e+00
3.539822708270189189e+00 -2.637253325065965992e+00
3.620273224367239528e+00 -2.643589482508490462e+00
3.700723740464288980e+00 -2.660698836310802839e+00
3.781174256561339320e+00 -2.658003692296315723e+00
3.861624772658388771e+00 -2.618355548147592859e+00
3.942075288755438223e+00 -2.578782259582975023e+00
4.022525804852488562e+00 -2.545914718745542427e+00
4.102976320949538014e+00 -2.553628482015322110e+00
4.183426837046588354e+00 -2.576750666038029269e+00
4.263877353143637805e+00 -2.588624550891570841e+00
4.344327869240687257e+00 -2.595182733645795992e+00
4.424778385337737596e+00 -2.603911750009163750e+00
4.505228901434787048e+00 -2.597026321526240356e+00
4.585679417531836499e+00 -2.586163314243203004e+00
4.666129933628886839e+00 -2.600614980187649028e+00
4.746580449725936290e+00 -2.626045194459166954e+00
4.827030965822985742e+00 -2.671188727315634281e+00
4.907481481920036082e+00 -2.717695865580603165e+00
4.987931998017085533e+00 -2.736639834483065137e+00
5.068382514114135873e+00 -2.769148768741788391e+00
5.148833030211185324e+00 -2.776295047166021934e+00
5.229283546308234776e+00 -2.754172349388814833e+00
5.309734062405285115e+00 -2.744195738994910538e+00
5.390184578502334567e+00 -2.748743426451076832e+00
5.470635094599384018e+00 -2.708630564844221933e+00
5.551085610696433470e+00 -2.663429095823709236e+00
5.631536126793483810e+00 -2.645943653739252444e+00
5.711986642890533261e+00 -2.642370064410365149e+00
5.792437158987582713e+00 -2.636094702819935520e+00
5.872887675084633052e+00 -2.595348814377773206e+00
5.953338191181682504e+00 -2.566724274080127710e+00
6.033788707278731955e+00 -2.596832725994058233e+00
6.114239223375781407e+00 -2.647280948580707616e+00
6.194689739472831747e+00 -2.629111276645402118e+00
6.275140255569881198e+00 -2.618854941306344219e+00
6.355590771666931538e+00 -2.636933294202784772e+00
6.436041287763980989e+00 -2.674423732390695196e+00
6.516491803861030441e+00 -2.691857215256676206e+00
6.596942319958079892e+00 -2.671410745388215879e+00
6.677392836055131120e+00 -2.636868804405948730e+00
6.757843352152180572e+00 -2.627644910300601211e+00
6.838293868249230023e+00 -2.631401724889013582e+00
6.918744384346279475e+00 -2.655966880374516226e+00
6.999194900443328926e+00 -2.691321075286276177e+00
7.079645416540378378e+00 -2.705947942508399429e+00
7.160095932637429605e+00 -2.712324176275748844e+00
7.240546448734479057e+00 -2.709895026340885860e+00
7.320996964831528508e+00 -2.696404652636915866e+00
7.401447480928577960e+00 -2.701754745510025035e+00
7.481897997025627411e+00 -2.710079481149906488e+00
7.562348513122678639e+00 -2.712851019830690991e+00
7.642799029219728091e+00 -2.704559624202300672e+00
7.723249545316777542e+00 -2.699660040483471857e+00
7.803700061413826994e+00 -2.687923846410596784e+00
7.884150577510876445e+00 -2.681087669763572379e+00
7.964601093607927673e+00 -2.677503121606602310e+00
8.045051609704977125e+00 -2.707146289506545678e+00
8.125502125802025688e+00 -2.747477479279156753e+00
8.205952641899076028e+00 -2.748391650255410212e+00
8.286403157996124591e+00 -2.736954212111809781e+00
8.366853674093176707e+00 -2.725852549559298676e+00
8.447304190190225270e+00 -2.715044280802346499e+00
8.527754706287275610e+00 -2.713294346853447170e+00
8.608205222384324173e+00 -2.725954709960162425e+00
8.688655738481374513e+00 -2.759671585441946906e+00
8.769106254578423076e+00 -2.784554087127470101e+00
8.849556770675475192e+00 -2.808709233470539690e+00
8.930007286772523756e+00 -2.806284289689640055e+00
9.010457802869574095e+00 -2.778624522459295143e+00
9.090908318966622659e+00 -2.784562589702956004e+00
9.171358835063672998e+00 -2.806506047445478824e+00
9.251809351160723338e+00 -2.804870192837851661e+00
9.332259867257773678e+00 -2.776529641535656179e+00
9.412710383354822241e+00 -2.770674353489286368e+00
9.493160899451872581e+00 -2.789876670754157573e+00
9.573611415548921144e+00 -2.790519126556744833e+00
9.654061931645971484e+00 -2.769875321061815665e+00
9.734512447743021823e+00 -2.767649634613917442e+00
9.814962963840072163e+00 -2.783268117330919278e+00
9.895413479937120727e+00 -2.796900712101320075e+00
9.975863996034171066e+00 -2.795794770649062677e+00
1.005631451213121963e+01 -2.808760308173161580e+00
1.013676502822827175e+01 -2.835533478986294931e+00
1.021721554432532031e+01 -2.836127181679922504e+00
1.029766606042237065e+01 -2.813078496755551328e+00
