0.000000000000000000e+00 -1.549019599857431873e-01
8.045051609704977069e-02 -1.835227680310103915e-01
1.609010321940995414e-01 -4.704640719554549766e-01
2.413515482911492982e-01 -1.084564218900067711e+00
3.218020643881990828e-01 -1.624845184246595853e+00
4.022525804852488118e-01 -2.199969091604034865e+00
4.827030965822985964e-01 -3.009723138100818041e+00
5.631536126793483810e-01 -3.280061599251477222e+00
6.436041287763981655e-01 -3.477144702033623247e+00
7.240546448734478391e-01 -3.692316610747141237e+00
8.045051609704976237e-01 -3.777223754679022605e+00
8.849556770675472972e-01 -3.871960286785768535e+00
9.654061931645971928e-01 -3.966587587698066297e+00
1.045856709261647088e+00 -3.958854305991757805e+00
1.126307225358696762e+00 -3.898078224620299626e+00
1.206757741455746435e+00 -3.839693522356563360e+00
1.287208257552796331e+00 -3.868658973730362050e+00
1.367658773649846005e+00 -3.902644900777536563e+00
1.448109289746895678e+00 -3.889455555069196269e+00
1.528559805843945352e+00 -3.814797760303210161e+00
1.609010321940995247e+00 -3.673312892064338087e+00
1.689460838038045143e+00 -3.568683408412966163e+00
1.769911354135094594e+00 -3.483532589782017741e+00
1.850361870232144490e+00 -3.429911681961382186e+00
1.930812386329194386e+00 -3.370208358257210879e+00
2.011262902426244281e+00 -3.318366281321439626e+00
2.091713418523294177e+00 -3.300034148718366644e+00
2.172163934620343628e+00 -3.256971138336891336e+00
2.252614450717393524e+00 -3.195379746243977248e+00
2.333064966814443419e+00 -3.210272839222096497e+00
2.413515482911492871e+00 -3.295259737593736915e+00
2.493965999008542767e+00 -3.383655138118412786e+00
2.574416515105592662e+00 -3.433037281892790116e+00
2.654867031202642558e+00 -3.396270751308599234e+00
2.735317547299692009e+00 -3.344164916586394476e+00
2.815768063396741905e+00 -3.325208221442756962e+00
2.896218579493791356e+00 -3.367223084731759464e+00
2.976669095590841252e+00 -3.413141741973470200e+00
3.057119611687890703e+00 -3.406104120485438091e+00
3.137570127784940599e+00 -3.397910767077386041e+00
3.218020643881990495e+00 -3.411166437374034466e+00
3.298471159979039946e+00 -3.437482513169921816e+00
3.378921676076090286e+00 -3.428259225685158729e+00
3.459372192173139737e+00 -3.406835427047963272e+00
3.539822708270189189e+00 -3.404044659331516787e+00
3.620273224367239528e+00 -3.391435777228735127e+00
3.700723740464288980e+00 -3.368451191310266157e+00
3.781174256561339320e+00 -3.344573956778078117e+00
3.861624772658388771e+00 -3.327306892380152537e+00
3.942075288755438223e+00 -3.314175635623175520e+00
4.022525804852488562e+00 -3.331430584656812410e+00
4.102976320949538014e+00 -3.352026641771461257e+00
4.183426837046588354e+00 -3.372978540503514644e+00
4.263877353143637805e+00 -3.400008893813570410e+00
4.344327869240687257e+00 -3.409681334216528636e+00
4.424778385337737596e+00 -3.406439991824117275e+00
4.505228901434787048e+00 -3.374919554049203185e+00
4.585679417531836499e+00 -3.361607580600192158e+00
4.666129933628886839e+00 -3.361755889193654756e+00
4.746580449725936290e+00 -3.388775686315954161e+00
4.827030965822985742e+00 -3.390276634488512908e+00
4.907481481920036082e+00 -3.385232280184115261e+00
4.987931998017085533e+00 -3.397400430076726430e+00
5.068382514114135873e+00 -3.405935419972210720e+00
5.148833030211185324e+00 -3.365373729702187511e+00
5.229283546308234776e+00 -3.337804737603913718e+00
5.309734062405285115e+00 -3.334230894802302725e+00
5.390184578502334567e+00 -3.325433263789124183e+00
5.470635094599384018e+00 -3.320382179377090459e+00
5.551085610696433470e+00 -3.322324617772865363e+00
5.631536126793483810e+00 -3.307956924194948467e+00
5.711986642890533261e+00 -3.315569280488980919e+00
5.792437158987582713e+00 -3.336339906765006802e+00
5.872887675084633052e+00 -3.375011888637361235e+00
5.953338191181682504e+00 -3.413287885515288167e+00
6.033788707278731955e+00 -3.414921326437695193e+00
6.114239223375781407e+00 -3.425482020839626163e+00
6.194689739472831747e+00 -3.418748924831283453e+00
6.275140255569881198e+00 -3.398473300112025086e+00
6.355590771666931538e+00 -3.384641646136079540e+00
6.436041287763980989e+00 -3.384501564585602917e+00
6.516491803861030441e+00 -3.386271503530093430e+00
6.596942319958079892e+00 -3.378327612924171053e+00
6.677392836055131120e+00 -3.358369082641588399e+00
6.757843352152180572e+00 -3.364230345458917082e+00
6.838293868249230023e+00 -3.374339925731363543e+00
6.918744384346279475e+00 -3.359143776269672532e+00
6.999194900443328926e+00 -3.360438989849455105e+00
7.079645416540378378e+00 -3.368569383922982663e+00
7.160095932637429605e+00 -3.367808272319618990e+00
7.240546448734479057e+00 -3.362446460441317342e+00
7.320996964831528508e+00 -3.391816138220908883e+00
7.401447480928577960e+00 -3.409668155326508909e+00
7.481897997025627411e+00 -3.407415183479952869e+00
7.562348513122678639e+00 -3.392788465966221967e+00
7.642799029219728091e+00 -3.382761202607293072e+00
7.723249545316777542e+00 -3.368764204629205672e+00
7.803700061413826994e+00 -3.372575700995041448e+00
7.884150577510876445e+00 -3.386251365720577056e+00
7.964601093607927673e+00 -3.413274304081085120e+00
8.045051609704977125e+00 -3.463708018503345532e+00
8.125502125802025688e+00 -3.490040493239550123e+00
8.205952641899076028e+00 -3.505261331082174081e+00
8.286403157996124591e+00 -3.505286073160146731e+00
8.366853674093176707e+00 -3.486191038844311585e+00
8.447304190190225270e+00 -3.464230955331048634e+00
8.527754706287275610e+00 -3.452154548311036297e+00
8.608205222384324173e+00 -3.445336590300776436e+00
8.688655738481374513e+00 -3.430913393134900513e+00
8.769106254578423076e+00 -3.422530855621968904e+00
8.849556770675475192e+00 -3.416836748537960045e+00
8.930007286772523756e+00 -3.430856976362398392e+00
9.010457802869574095e+00 -3.433065109567504436e+00
9.090908318966622659e+00 -3.427727801627694415e+00
9.171358835063672998e+00 -3.444741147819626814e+00
9.251809351160723338e+00 -3.458796879312274530e+00
9.332259867257773678e+00 -3.465437067538117866e+00
9.412710383354822241e+00 -3.470206349515837285e+00
9.493160899451872581e+00 -3.484368190278444022e+00
9.573611415548921144e+00 -3.497975250067688613e+00
9.654061931645971484e+00 -3.487876379540376437e+00
9.734512447743021823e+00 -3.468729665080553914e+00
9.814962963840072163e+00 -3.466966862563071849e+00
9.895413479937120727e+00 -3.492165222302828553e+00
9.975863996034171066e+00 -3.537359157536936305e+00
1.005631451213121963e+01 -3.569168411499056504e+00
1.013676502822827175e+01 -3.555578872567000115e+00
1.021721554432532031e+01 -3.532681211244870223e+00
1.029766606042237065e+01 -3.523198313412985172e+00
