0.000000000000000000e+00 -1.549019599857431873e-01
8.045051609704977069e-02 -1.842512380358192481e-01
1.609010321940995414e-01 -4.455134395526901825e-01
2.413515482911492982e-01 -1.089908183937032371e+00
3.218020643881990828e-01 -1.886589231450658710e+00
4.022525804852488118e-01 -2.792964621793884383e+00
4.827030965822985964e-01 -3.197843872526727971e+00
5.631536126793483810e-01 -3.205430824957320013e+00
6.436041287763981655e-01 -3.405626509681124681e+00
7.240546448734478391e-01 -3.816812012510307106e+00
8.045051609704976237e-01 -3.994968552944829110e+00
8.849556770675472972e-01 -3.921807081500525261e+00
9.654061931645971928e-01 -3.960078290475341323e+00
1.045856709261647088e+00 -4.014003527444238273e+00
1.126307225358696762e+00 -3.966016104844885870e+00
1.206757741455746435e+00 -3.885143312222700818e+00
1.287208257552796331e+00 -3.818301606102705748e+00
1.367658773649846005e+00 -3.819198604701848687e+00
1.448109289746895678e+00 -3.851570222016188261e+00
1.528559805843945352e+00 -3.851902789956831885e+00
1.609010321940995247e+00 -3.809727722319415477e+00
1.689460838038045143e+00 -3.737806758256680073e+00
1.769911354135094594e+00 -3.651328871468577209e+00
1.850361870232144490e+00 -3.603289235695062764e+00
1.930812386329194386e+00 -3.606243351279692089e+00
2.011262902426244281e+00 -3.563743708111216435e+00
2.091713418523294177e+00 -3.447672140533038831e+00
2.172163934620343628e+00 -3.381484327160105163e+00
2.252614450717393524e+00 -3.308270326010533502e+00
2.333064966814443419e+00 -3.245114274934851828e+00
2.413515482911492871e+00 -3.202433575113443176e+00
2.493965999008542767e+00 -3.201602592213887988e+00
2.574416515105592662e+00 -3.234437453196135959e+00
2.654867031202642558e+00 -3.302922377777532503e+00
2.735317547299692009e+00 -3.351492296299773965e+00
2.815768063396741905e+00 -3.355345812940180750e+00
2.896218579493791356e+00 -3.348332122996551696e+00
2.976669095590841252e+00 -3.344898460166412679e+00
3.057119611687890703e+00 -3.339913619925734434e+00
3.137570127784940599e+00 -3.371234764422622820e+00
3.218020643881990495e+00 -3.364245967617392807e+00
3.298471159979039946e+00 -3.359533708553898990e+00
3.378921676076090286e+00 -3.339741087323591540e+00
3.459372192173139737e+00 -3.327840906856573966e+00
3.539822708270189189e+00 -3.324239634146858080e+00
3.620273224367239528e+00 -3.312096375944162840e+00
3.700723740464288980e+00 -3.296478391054344037e+00
3.781174256561339320e+00 -3.301328050683347115e+00
3.861624772658388771e+00 -3.344051030196962593e+00
3.942075288755438223e+00 -3.368456071718190614e+00
4.022525804852488562e+00 -3.343628867970009910e+00
4.102976320949538014e+00 -3.301565837093141109e+00
4.183426837046588354e+00 -3.271027443142063618e+00
4.263877353143637805e+00 -3.271139816828807056e+00
4.344327869240687257e+00 -3.295537320309930962e+00
4.424778385337737596e+00 -3.339777543140275196e+00
4.505228901434787048e+00 -3.339802820197447897e+00
4.585679417531836499e+00 -3.358406499200767836e+00
4.666129933628886839e+00 -3.408185232320331437e+00
4.746580449725936290e+00 -3.412387895272900984e+00
4.827030965822985742e+00 -3.370952161264365365e+00
4.907481481920036082e+00 -3.336912714659539869e+00
4.987931998017085533e+00 -3.305137492904937524e+00
5.068382514114135873e+00 -3.299808746185142638e+00
5.148833030211185324e+00 -3.316086296181514737e+00
5.229283546308234776e+00 -3.348623182239943930e+00
5.309734062405285115e+00 -3.356364079223531416e+00
5.390184578502334567e+00 -3.360894128378932866e+00
5.470635094599384018e+00 -3.374173402800237920e+00
5.551085610696433470e+00 -3.366124232760538071e+00
5.631536126793483810e+00 -3.374508309722350052e+00
5.711986642890533261e+00 -3.391748707535395813e+00
5.792437158987582713e+00 -3.436653482738612375e+00
5.872887675084633052e+00 -3.478287663062756607e+00
5.953338191181682504e+00 -3.446795925626257695e+00
6.033788707278731955e+00 -3.365107561499688593e+00
6.114239223375781407e+00 -3.331351666057408956e+00
6.194689739472831747e+00 -3.369622811095551729e+00
6.275140255569881198e+00 -3.395234728503469412e+00
6.355590771666931538e+00 -3.388444566144320991e+00
6.436041287763980989e+00 -3.348241253279855112e+00
6.516491803861030441e+00 -3.334610212326662992e+00
6.596942319958079892e+00 -3.326797076480918047e+00
6.677392836055131120e+00 -3.324498092461845022e+00
6.757843352152180572e+00 -3.345473902943901567e+00
6.838293868249230023e+00 -3.358929417482542590e+00
6.918744384346279475e+00 -3.374679804965503127e+00
6.999194900443328926e+00 -3.393800289618221555e+00
7.079645416540378378e+00 -3.407728198871583736e+00
7.160095932637429605e+00 -3.401105880645820534e+00
7.240546448734479057e+00 -3.383781392967750268e+00
7.320996964831528508e+00 -3.387880725050404163e+00
7.401447480928577960e+00 -3.395028701258113735e+00
7.481897997025627411e+00 -3.410387664717403400e+00
7.562348513122678639e+00 -3.436457372727155235e+00
7.642799029219728091e+00 -3.434297876250047121e+00
7.723249545316777542e+00 -3.433630522469114155e+00
7.803700061413826994e+00 -3.442616165266396244e+00
7.884150577510876445e+00 -3.440125606018163307e+00
7.964601093607927673e+00 -3.448639258836566857e+00
8.045051609704977125e+00 -3.457386824692538330e+00
8.125502125802025688e+00 -3.441066326844119949e+00
8.205952641899076028e+00 -3.431513292511815916e+00
8.286403157996124591e+00 -3.422322627635629555e+00
8.366853674093176707e+00 -3.395739605612660750e+00
8.447304190190225270e+00 -3.391691633105817338e+00
8.527754706287275610e+00 -3.416643566157952616e+00
8.608205222384324173e+00 -3.446448996653050934e+00
8.688655738481374513e+00 -3.477996120846216233e+00
8.769106254578423076e+00 -3.502708398910626908e+00
8.849556770675475192e+00 -3.501210908308484360e+00
8.930007286772523756e+00 -3.479085475770759217e+00
9.010457802869574095e+00 -3.463254711324269763e+00
9.090908318966622659e+00 -3.496746753319503132e+00
9.171358835063672998e+00 -3.537433595097112971e+00
9.251809351160723338e+00 -3.561504001583316814e+00
9.332259867257773678e+00 -3.563089042930932759e+00
9.412710383354822241e+00 -3.551813586262714484e+00
9.493160899451872581e+00 -3.510045401193099046e+00
9.573611415548921144e+00 -3.449580551913582926e+00
9.654061931645971484e+00 -3.431698615629363847e+00
9.734512447743021823e+00 -3.452261338401445556e+00
9.814962963840072163e+00 -3.487127940116698799e+00
9.895413479937120727e+00 -3.490548420488866821e+00
9.975863996034171066e+00 -3.487048047036065412e+00
1.005631451213121963e+01 -3.500491867219066577e+00
1.013676502822827175e+01 -3.504232225516695554e+00
1.021721554432532031e+01 -3.528989632523048758e+00
1.029766606042237065e+01 -3.553739284086015804e+00
