0.000000000000000000e+00 -1.549019599857431873e-01
8.045051609704977069e-02 -2.112051279138470183e-01
1.609010321940995414e-01 -6.339921690551693079e-01
2.413515482911492982e-01 -1.917858786091912737e+00
3.218020643881990828e-01 -2.234452136668855005e+00
4.022525804852488118e-01 -2.875696427075626005e+00
4.827030965822985964e-01 -3.377609641648799510e+00
5.631536126793483810e-01 -3.470338824156984359e+00
6.436041287763981655e-01 -3.465621506123643947e+00
7.240546448734478391e-01 -3.575406271587733720e+00
8.045051609704976237e-01 -3.703661443634530315e+00
8.849556770675472972e-01 -3.770686724535270429e+00
9.654061931645971928e-01 -3.764006830452968799e+00
1.045856709261647088e+00 -3.795347119394832713e+00
1.126307225358696762e+00 -3.797210821703530748e+00
1.206757741455746435e+00 -3.824052284568976834e+00
1.287208257552796331e+00 -3.871997311857481971e+00
1.367658773649846005e+00 -3.808926986269957737e+00
1.448109289746895678e+00 -3.708076509323737557e+00
1.528559805843945352e+00 -3.695011271352604432e+00
1.609010321940995247e+00 -3.691399335270521220e+00
1.689460838038045143e+00 -3.591509635176596937e+00
1.769911354135094594e+00 -3.481067838049070495e+00
1.850361870232144490e+00 -3.430096726992961198e+00
1.930812386329194386e+00 -3.395652329808059200e+00
2.011262902426244281e+00 -3.340747596305327693e+00
2.091713418523294177e+00 -3.272037608865302261e+00
2.172163934620343628e+00 -3.243548058189395622e+00
2.252614450717393524e+00 -3.242579353039364065e+00
2.333064966814443419e+00 -3.265988945506823615e+00
2.413515482911492871e+00 -3.262318587144408699e+00
2.493965999008542767e+00 -3.279173152094232879e+00
2.574416515105592662e+00 -3.315947977861598339e+00
2.654867031202642558e+00 -3.344746903217398870e+00
2.735317547299692009e+00 -3.342312781995404158e+00
2.815768063396741905e+00 -3.395131016141114344e+00
2.896218579493791356e+00 -3.447634376544284063e+00
2.976669095590841252e+00 -3.427505813337968554e+00
3.057119611687890703e+00 -3.361307080241083156e+00
3.137570127784940599e+00 -3.318890960023409331e+00
3.218020643881990495e+00 -3.305622760550758876e+00
3.298471159979039946e+00 -3.301223139752811786e+00
3.378921676076090286e+00 -3.278384919295808331e+00
3.459372192173139737e+00 -3.263358370962690547e+00
3.539822708270189189e+00 -3.278278329632120069e+00
3.620273224367239528e+00 -3.315690218278589008e+00
3.700723740464288980e+00 -3.342657957033511096e+00
3.781174256561339320e+00 -3.319864137475030397e+00
3.861624772658388771e+00 -3.298571821477092492e+00
3.942075288755438223e+00 -3.284398802979236809e+00
4.022525804852488562e+00 -3.264054735259415807e+00
4.102976320949538014e+00 -3.266526727561229748e+00
4.183426837046588354e+00 -3.270420163612881126e+00
4.263877353143637805e+00 -3.295044594230998491e+00
4.344327869240687257e+00 -3.326762235567045423e+00
4.424778385337737596e+00 -3.323151050286946795e+00
4.505228901434787048e+00 -3.299896566272769505e+00
4.585679417531836499e+00 -3.319354304558264968e+00
4.666129933628886839e+00 -3.339327230735247731e+00
4.746580449725936290e+00 -3.326971449028139904e+00
4.827030965822985742e+00 -3.303943021956457837e+00
4.907481481920036082e+00 -3.327968092783961662e+00
4.987931998017085533e+00 -3.358608655074867499e+00
5.068382514114135873e+00 -3.387008023125683831e+00
5.148833030211185324e+00 -3.415827479647108422e+00
5.229283546308234776e+00 -3.423374392869463101e+00
5.309734062405285115e+00 -3.403695844955046290e+00
5.390184578502334567e+00 -3.351454566638064403e+00
5.470635094599384018e+00 -3.327039912955102263e+00
5.551085610696433470e+00 -3.352156541328635608e+00
5.631536126793483810e+00 -3.365335560516870661e+00
5.711986642890533261e+00 -3.378029790298495705e+00
5.792437158987582713e+00 -3.384069191657621989e+00
5.872887675084633052e+00 -3.373839613341778065e+00
5.953338191181682504e+00 -3.364765399987287964e+00
6.033788707278731955e+00 -3.387479265358263270e+00
6.114239223375781407e+00 -3.414803196890975556e+00
6.194689739472831747e+00 -3.415299884252640084e+00
6.275140255569881198e+00 -3.390527365659706582e+00
6.355590771666931538e+00 -3.395481261627217417e+00
6.436041287763980989e+00 -3.392165622588954044e+00
6.516491803861030441e+00 -3.365861589090908268e+00
6.596942319958079892e+00 -3.350628318601267086e+00
6.677392836055131120e+00 -3.359212014344305608e+00
6.757843352152180572e+00 -3.380130799589814661e+00
6.838293868249230023e+00 -3.409054857981380415e+00
6.918744384346279475e+00 -3.421378844109355555e+00
6.999194900443328926e+00 -3.443327801420436263e+00
7.079645416540378378e+00 -3.455291900819663198e+00
7.160095932637429605e+00 -3.458330273572509661e+00
7.240546448734479057e+00 -3.445395150418869346e+00
7.320996964831528508e+00 -3.451544855891549801e+00
7.401447480928577960e+00 -3.458620802178688614e+00
7.481897997025627411e+00 -3.461467310279529475e+00
7.562348513122678639e+00 -3.465770747187013612e+00
7.642799029219728091e+00 -3.467609517273919195e+00
7.723249545316777542e+00 -3.461314840398162840e+00
7.803700061413826994e+00 -3.448346795872902160e+00
7.884150577510876445e+00 -3.424322821712341369e+00
7.964601093607927673e+00 -3.415910683520889890e+00
8.045051609704977125e+00 -3.427291226357864318e+00
8.125502125802025688e+00 -3.429284260733572953e+00
8.205952641899076028e+00 -3.415718566138685297e+00
8.286403157996124591e+00 -3.396897350407707350e+00
8.366853674093176707e+00 -3.403478140150283160e+00
8.447304190190225270e+00 -3.430265867732975593e+00
8.527754706287275610e+00 -3.463937516653555093e+00
8.608205222384324173e+00 -3.472894757504287000e+00
8.688655738481374513e+00 -3.484563227530238727e+00
8.769106254578423076e+00 -3.507844402560799324e+00
8.849556770675475192e+00 -3.528273476850254831e+00
8.930007286772523756e+00 -3.520217521420576201e+00
9.010457802869574095e+00 -3.478543765355237571e+00
9.090908318966622659e+00 -3.443575190575445255e+00
9.171358835063672998e+00 -3.415084305115104524e+00
9.251809351160723338e+00 -3.401692293906064091e+00
9.332259867257773678e+00 -3.431014174029344055e+00
9.412710383354822241e+00 -3.465906933080768138e+00
9.493160899451872581e+00 -3.478891838479454268e+00
9.573611415548921144e+00 -3.495460344633953387e+00
9.654061931645971484e+00 -3.495831146460502303e+00
9.734512447743021823e+00 -3.505268760889492352e+00
9.814962963840072163e+00 -3.532671031860670663e+00
9.895413479937120727e+00 -3.557255099806146958e+00
9.975863996034171066e+00 -3.580594600930495197e+00
1.005631451213121963e+01 -3.574894504630628855e+00
1.013676502822827175e+01 -3.548187894971043477e+00
1.021721554432532031e+01 -3.550354858379040746e+00
1.029766606042237065e+01 -3.558106532564018654e+00
