0.000000000000000000e+00 -1.549019599857431873e-01
8.045051609704977069e-02 -1.872413953670091225e-01
1.609010321940995414e-01 -5.071066261781498330e-01
2.413515482911492982e-01 -1.962009264880489434e+00
3.218020643881990828e-01 -3.103590214552996773e+00
4.022525804852488118e-01 -3.043474336383149570e+00
4.827030965822985964e-01 -2.862089442167174536e+00
5.631536126793483810e-01 -2.743934666876362005e+00
6.436041287763981655e-01 -2.662723053565253739e+00
7.240546448734478391e-01 -2.648494794734124191e+00
8.045051609704976237e-01 -2.600605854805205563e+00
8.849556770675472972e-01 -2.520344405910171837e+00
9.654061931645971928e-01 -2.476292431838116759e+00
1.045856709261647088e+00 -2.453388416756067336e+00
1.126307225358696762e+00 -2.456076122321875665e+00
1.206757741455746435e+00 -2.498723312136237773e+00
1.287208257552796331e+00 -2.600090328098428216e+00
1.367658773649846005e+00 -2.636972845437902446e+00
1.448109289746895678e+00 -2.620774506093626499e+00
1.528559805843945352e+00 -2.605157830176421552e+00
1.609010321940995247e+00 -2.660623221939928840e+00
1.689460838038045143e+00 -2.723026129310292198e+00
1.769911354135094594e+00 -2.685723790767764019e+00
1.850361870232144490e+00 -2.603733336714100677e+00
1.930812386329194386e+00 -2.516192449975229284e+00
2.011262902426244281e+00 -2.495769778118393400e+00
2.091713418523294177e+00 -2.496569299563677014e+00
2.172163934620343628e+00 -2.505678509588820546e+00
2.252614450717393524e+00 -2.551071996920119656e+00
2.333064966814443419e+00 -2.581778614109158987e+00
2.413515482911492871e+00 -2.590819705887082769e+00
2.493965999008542767e+00 -2.586838657027342947e+00
2.574416515105592662e+00 -2.585698571571774185e+00
2.654867031202642558e+00 -2.574731385556559893e+00
2.735317547299692009e+00 -2.542093147119474317e+00
2.815768063396741905e+00 -2.555643301656517874e+00
2.896218579493791356e+00 -2.565979244804312831e+00
2.976669095590841252e+00 -2.566282048441395069e+00
3.057119611687890703e+00 -2.556282399286364360e+00
3.137570127784940599e+00 -2.587346145384237683e+00
3.218020643881990495e+00 -2.607357223918115974e+00
3.298471159979039946e+00 -2.625798049449647120e+00
3.378921676076090286e+00 -2.649291361795585331e+00
3.459372192173139737e+00 -2.650937169077204114e+00
3.539822708270189189e+00 -2.611825139014559038e+00
3.620273224367239528e+00 -2.591620388009783671e+00
3.700723740464288980e+00 -2.612707676784923994e+00
3.781174256561339320e+00 -2.622937631014955251e+00
3.861624772658388771e+00 -2.635034963296819299e+00
3.942075288755438223e+00 -2.648790690545298698e+00
4.022525804852488562e+00 -2.679518422056530458e+00
4.102976320949538014e+00 -2.717243415636368731e+00
4.183426837046588354e+00 -2.719397600361959100e+00
4.263877353143637805e+00 -2.694088976075844410e+00
4.344327869240687257e+00 -2.683551394149350067e+00
4.424778385337737596e+00 -2.693797347367191453e+00
4.505228901434787048e+00 -2.718981825814511755e+00
4.585679417531836499e+00 -2.692507980661211775e+00
4.666129933628886839e+00 -2.663004419004200152e+00
4.746580449725936290e+00 -2.658896890717799888e+00
4.827030965822985742e+00 -2.644063166034589685e+00
4.907481481920036082e+00 -2.628516198838951823e+00
4.987931998017085533e+00 -2.627834786650018462e+00
5.068382514114135873e+00 -2.653632259674813199e+00
5.148833030211185324e+00 -2.705535722220237194e+00
5.229283546308234776e+00 -2.730799710284631754e+00
5.309734062405285115e+00 -2.727334097074027852e+00
5.390184578502334567e+00 -2.711688302970296061e+00
5.470635094599384018e+00 -2.714106125023450833e+00
5.551085610696433470e+00 -2.743981911676126817e+00
5.631536126793483810e+00 -2.777631862804833318e+00
5.711986642890533261e+00 -2.766058240697118809e+00
5.792437158987582713e+00 -2.760928279225109083e+00
5.872887675084633052e+00 -2.760458695444616861e+00
5.953338191181682504e+00 -2.749151975310799134e+00
6.033788707278731955e+00 -2.714140244587105677e+00
6.114239223375781407e+00 -2.681167848432705725e+00
6.194689739472831747e+00 -2.666776210404970815e+00
6.275140255569881198e+00 -2.688840877709148369e+00
6.355590771666931538e+00 -2.710173799361121016e+00
6.436041287763980989e+00 -2.720666048510519630e+00
6.516491803861030441e+00 -2.729710545679074229e+00
6.596942319958079892e+00 -2.723647172406007844e+00
6.677392836055131120e+00 -2.679210127175151168e+00
6.757843352152180572e+00 -2.646351557681427380e+00
6.838293868249230023e+00 -2.644512668027180435e+00
6.918744384346279475e+00 -2.661154927265166670e+00
6.999194900443328926e+00 -2.667456490962676341e+00
7.079645416540378378e+00 -2.664030174619423263e+00
7.160095932637429605e+00 -2.660288951313352968e+00
7.240546448734479057e+00 -2.667998240617514227e+00
7.320996964831528508e+00 -2.719574625167374915e+00
7.401447480928577960e+00 -2.741150593459404927e+00
7.481897997025627411e+00 -2.744346618887187894e+00
7.562348513122678639e+00 -2.745384484212641585e+00
7.642799029219728091e+00 -2.731880028871720878e+00
7.723249545316777542e+00 -2.721107235110756140e+00
7.803700061413826994e+00 -2.714156676223602016e+00
7.884150577510876445e+00 -2.728094427410340472e+00
7.964601093607927673e+00 -2.746700930596283285e+00
8.045051609704977125e+00 -2.756741333459511445e+00
8.125502125802025688e+00 -2.757489210057401330e+00
8.205952641899076028e+00 -2.759898147792344325e+00
8.286403157996124591e+00 -2.753505155820893169e+00
8.366853674093176707e+00 -2.760563766327740698e+00
8.447304190190225270e+00 -2.744885603435089472e+00
8.527754706287275610e+00 -2.732751542717328785e+00
8.608205222384324173e+00 -2.729696722665073683e+00
8.688655738481374513e+00 -2.728611531757668018e+00
8.769106254578423076e+00 -2.725015877268692321e+00
8.849556770675475192e+00 -2.709220066986809172e+00
8.930007286772523756e+00 -2.712303573841550630e+00
9.010457802869574095e+00 -2.713726724855350714e+00
9.090908318966622659e+00 -2.723977319348646287e+00
9.171358835063672998e+00 -2.732558906914251740e+00
9.251809351160723338e+00 -2.740426147760420594e+00
9.332259867257773678e+00 -2.753658676975096142e+00
9.412710383354822241e+00 -2.762739219623152831e+00
9.493160899451872581e+00 -2.776817371576228766e+00
9.573611415548921144e+00 -2.784129590222619299e+00
9.654061931645971484e+00 -2.809311270100463442e+00
9.734512447743021823e+00 -2.825476408776724568e+00
9.814962963840072163e+00 -2.812747027131976552e+00
9.895413479937120727e+00 -2.790918985999136570e+00
9.975863996034171066e+00 -2.789718125846673669e+00
1.005631451213121963e+01 -2.821911723351100854e+00
1.013676502822827175e+01 -2.846204018804205482e+00
1.021721554432532031e+01 -2.846355445579579424e+00
1.029766606042237065e+01 -2.825056483480473002e+00
