0.000000000000000000e+00 -1.549019599857431873e-01
8.045051609704977069e-02 -1.972666115509308649e-01
1.609010321940995414e-01 -5.976097317295477884e-01
2.413515482911492982e-01 -2.463471797097940730e+00
3.218020643881990828e-01 -3.204648788903778467e+00
4.022525804852488118e-01 -2.674663742482965123e+00
4.827030965822985964e-01 -2.561173955281508263e+00
5.631536126793483810e-01 -2.584334016112849408e+00
6.436041287763981655e-01 -2.640297904144714103e+00
7.240546448734478391e-01 -2.598986569700740823e+00
8.045051609704976237e-01 -2.521436962233647883e+00
8.849556770675472972e-01 -2.532496976758273899e+00
9.654061931645971928e-01 -2.530650898564041018e+00
1.045856709261647088e+00 -2.550091456644026700e+00
1.126307225358696762e+00 -2.591269591489619106e+00
1.206757741455746435e+00 -2.669988688273633670e+00
1.287208257552796331e+00 -2.645826876632739744e+00
1.367658773649846005e+00 -2.621269498132920983e+00
1.448109289746895678e+00 -2.629779748651034144e+00
1.528559805843945352e+00 -2.629932416137015228e+00
1.609010321940995247e+00 -2.579235456337556798e+00
1.689460838038045143e+00 -2.523343047674352579e+00
1.769911354135094594e+00 -2.535942993277950475e+00
1.850361870232144490e+00 -2.615616412139258884e+00
1.930812386329194386e+00 -2.669692347066593197e+00
2.011262902426244281e+00 -2.684852029312038368e+00
2.091713418523294177e+00 -2.661258249064984316e+00
2.172163934620343628e+00 -2.642397998116472468e+00
2.252614450717393524e+00 -2.641331213897849750e+00
2.333064966814443419e+00 -2.651774811193825521e+00
2.413515482911492871e+00 -2.631439626883940619e+00
2.493965999008542767e+00 -2.583735640951693391e+00
2.574416515105592662e+00 -2.553759424347574303e+00
2.654867031202642558e+00 -2.545892621366484310e+00
2.735317547299692009e+00 -2.564689530558360797e+00
2.815768063396741905e+00 -2.589504640485027487e+00
2.896218579493791356e+00 -2.597992308856166499e+00
2.976669095590841252e+00 -2.582817685049870970e+00
3.057119611687890703e+00 -2.540161935761224399e+00
3.137570127784940599e+00 -2.507652365077841061e+00
3.218020643881990495e+00 -2.532892562478920695e+00
3.298471159979039946e+00 -2.598850703687775265e+00
3.378921676076090286e+00 -2.640148898455310977e+00
3.459372192173139737e+00 -2.644321945294069387e+00
3.539822708270189189e+00 -2.642124399710972238e+00
3.620273224367239528e+00 -2.646629352972077687e+00
3.700723740464288980e+00 -2.659977783504707372e+00
3.781174256561339320e+00 -2.698953723288109341e+00
3.861624772658388771e+00 -2.730766626432179489e+00
3.942075288755438223e+00 -2.717572778387662868e+00
4.022525804852488562e+00 -2.677067464624721893e+00
4.102976320949538014e+00 -2.653313449975939875e+00
4.183426837046588354e+00 -2.658937053435345810e+00
4.263877353143637805e+00 -2.657798489283100363e+00
4.344327869240687257e+00 -2.653521314614013082e+00
4.424778385337737596e+00 -2.647527786227782176e+00
4.505228901434787048e+00 -2.627401115128866316e+00
4.585679417531836499e+00 -2.611025367822603194e+00
4.666129933628886839e+00 -2.582008133879476919e+00
4.746580449725936290e+00 -2.558563285246224339e+00
4.827030965822985742e+00 -2.561995121719365720e+00
4.907481481920036082e+00 -2.586135103352941833e+00
4.987931998017085533e+00 -2.615938648613715056e+00
5.068382514114135873e+00 -2.618703133463881727e+00
5.148833030211185324e+00 -2.620052495386014701e+00
5.229283546308234776e+00 -2.622919188736605900e+00
5.309734062405285115e+00 -2.617964254242726163e+00
5.390184578502334567e+00 -2.611812024826333900e+00
5.470635094599384018e+00 -2.606334736841391830e+00
5.551085610696433470e+00 -2.628415904373854861e+00
5.631536126793483810e+00 -2.690799237778914943e+00
5.711986642890533261e+00 -2.729855676620302152e+00
5.792437158987582713e+00 -2.716450672584733717e+00
5.872887675084633052e+00 -2.661333992064900844e+00
5.953338191181682504e+00 -2.640830514671304474e+00
6.033788707278731955e+00 -2.634512689916165940e+00
6.114239223375781407e+00 -2.621500274799394514e+00
6.194689739472831747e+00 -2.631962161552781509e+00
6.275140255569881198e+00 -2.638206270542712506e+00
6.355590771666931538e+00 -2.664618848118999850e+00
6.436041287763980989e+00 -2.688028591669868295e+00
6.516491803861030441e+00 -2.695395516267227620e+00
6.596942319958079892e+00 -2.687872264826737023e+00
6.677392836055131120e+00 -2.681421730131625214e+00
6.757843352152180572e+00 -2.678937500616521028e+00
6.838293868249230023e+00 -2.660647302601829800e+00
6.918744384346279475e+00 -2.648023776268186857e+00
6.999194900443328926e+00 -2.658222085680733926e+00
7.079645416540378378e+00 -2.679855018821099222e+00
7.160095932637429605e+00 -2.704882861251102888e+00
7.240546448734479057e+00 -2.705607840023171562e+00
7.320996964831528508e+00 -2.707637156301953674e+00
7.401447480928577960e+00 -2.723885293187602752e+00
7.481897997025627411e+00 -2.719636130257133910e+00
7.562348513122678639e+00 -2.681855131951604410e+00
7.642799029219728091e+00 -2.668433542604488284e+00
7.723249545316777542e+00 -2.670882501653953689e+00
7.803700061413826994e+00 -2.662427240996844802e+00
7.884150577510876445e+00 -2.657427338137429373e+00
7.964601093607927673e+00 -2.649286611577356343e+00
8.045051609704977125e+00 -2.652484698117970829e+00
8.125502125802025688e+00 -2.677299744400526649e+00
8.205952641899076028e+00 -2.718492649934448391e+00
8.286403157996124591e+00 -2.745138600593262979e+00
8.366853674093176707e+00 -2.748209408398443632e+00
8.447304190190225270e+00 -2.730085013814678607e+00
8.527754706287275610e+00 -2.735768419740387980e+00
8.608205222384324173e+00 -2.754592706862207585e+00
8.688655738481374513e+00 -2.749460354729414302e+00
8.769106254578423076e+00 -2.727095968945427273e+00
8.849556770675475192e+00 -2.710964805921934673e+00
8.930007286772523756e+00 -2.707139818450283730e+00
9.010457802869574095e+00 -2.713401259879682836e+00
9.090908318966622659e+00 -2.742498926320732444e+00
9.171358835063672998e+00 -2.771965773179133841e+00
9.251809351160723338e+00 -2.784451222047505059e+00
9.332259867257773678e+00 -2.777871689446615555e+00
9.412710383354822241e+00 -2.755048172410777152e+00
9.493160899451872581e+00 -2.753153723386061458e+00
9.573611415548921144e+00 -2.765164955491951737e+00
9.654061931645971484e+00 -2.782368491653283815e+00
9.734512447743021823e+00 -2.792689191222240463e+00
9.814962963840072163e+00 -2.807398467360266547e+00
9.895413479937120727e+00 -2.814570796482139592e+00
9.975863996034171066e+00 -2.807236810756303935e+00
1.005631451213121963e+01 -2.786992739570480104e+00
1.013676502822827175e+01 -2.785897733053870340e+00
1.021721554432532031e+01 -2.802680518047653280e+00
1.029766606042237065e+01 -2.822837910715570331e+00
