0.000000000000000000e+00 -1.549019599857431873e-01
8.045051609704977069e-02 -2.055963948042857370e-01
1.609010321940995414e-01 -5.454882114991375097e-01
2.413515482911492982e-01 -2.250969565728262900e+00
3.218020643881990828e-01 -3.311444724331932488e+00
4.022525804852488118e-01 -2.939899789346716030e+00
4.827030965822985964e-01 -2.745419419231712066e+00
5.631536126793483810e-01 -2.718239462082929325e+00
6.436041287763981655e-01 -2.837701048302843532e+00
7.240546448734478391e-01 -2.872812181408871623e+00
8.045051609704976237e-01 -2.793404370189138675e+00
8.849556770675472972e-01 -2.659351376004563505e+00
9.654061931645971928e-01 -2.576264243686459121e+00
1.045856709261647088e+00 -2.522710734000073618e+00
1.126307225358696762e+00 -2.507111556250035456e+00
1.206757741455746435e+00 -2.568963385199646954e+00
1.287208257552796331e+00 -2.640306339710002614e+00
1.367658773649846005e+00 -2.657139548626004988e+00
1.448109289746895678e+00 -2.630128777548392360e+00
1.528559805843945352e+00 -2.599854791118013875e+00
1.609010321940995247e+00 -2.556449543644198741e+00
1.689460838038045143e+00 -2.540333213844289340e+00
1.769911354135094594e+00 -2.535726699118765914e+00
1.850361870232144490e+00 -2.522723306133276555e+00
1.930812386329194386e+00 -2.519917017715800345e+00
2.011262902426244281e+00 -2.560196577658977901e+00
2.091713418523294177e+00 -2.594330034962577969e+00
2.172163934620343628e+00 -2.620659861248452405e+00
2.252614450717393524e+00 -2.636767534492864939e+00
2.333064966814443419e+00 -2.614091884777766328e+00
2.413515482911492871e+00 -2.607915965913780276e+00
2.493965999008542767e+00 -2.613519550182377138e+00
2.574416515105592662e+00 -2.640915321122267567e+00
2.654867031202642558e+00 -2.646497071089523700e+00
2.735317547299692009e+00 -2.648927941906978223e+00
2.815768063396741905e+00 -2.653340787494628650e+00
2.896218579493791356e+00 -2.640230040657635335e+00
2.976669095590841252e+00 -2.647801747879369394e+00
3.057119611687890703e+00 -2.651912619678153504e+00
3.137570127784940599e+00 -2.628995637095709270e+00
3.218020643881990495e+00 -2.618727539769889034e+00
3.298471159979039946e+00 -2.650660845853674008e+00
3.378921676076090286e+00 -2.683838114992816770e+00
3.459372192173139737e+00 -2.725913291931304716e+00
3.539822708270189189e+00 -2.717201143072964786e+00
3.620273224367239528e+00 -2.674471015491140857e+00
3.700723740464288980e+00 -2.607008384004815937e+00
3.781174256561339320e+00 -2.566231868649011538e+00
3.861624772658388771e+00 -2.567588833234682788e+00
3.942075288755438223e+00 -2.596899379708560662e+00
4.022525804852488562e+00 -2.620050299762627155e+00
4.102976320949538014e+00 -2.637834481772637130e+00
4.183426837046588354e+00 -2.661050043865360148e+00
4.263877353143637805e+00 -2.684980597244571499e+00
4.344327869240687257e+00 -2.694724953414023627e+00
4.424778385337737596e+00 -2.701206994657019855e+00
4.505228901434787048e+00 -2.655658184688914680e+00
4.585679417531836499e+00 -2.613037140268499758e+00
4.666129933628886839e+00 -2.603891070315354384e+00
4.746580449725936290e+00 -2.628404854897299359e+00
4.827030965822985742e+00 -2.652716104052779578e+00
4.907481481920036082e+00 -2.653249236111747233e+00
4.987931998017085533e+00 -2.628361678814242985e+00
5.068382514114135873e+00 -2.595040106280896541e+00
5.148833030211185324e+00 -2.602050774731575089e+00
5.229283546308234776e+00 -2.647426418858673802e+00
5.309734062405285115e+00 -2.665762085127263870e+00
5.390184578502334567e+00 -2.658810869491277096e+00
5.470635094599384018e+00 -2.668488303329549893e+00
5.551085610696433470e+00 -2.693313080726774444e+00
5.631536126793483810e+00 -2.699178649735934243e+00
5.711986642890533261e+00 -2.676337991693340523e+00
5.792437158987582713e+00 -2.654183916309327262e+00
5.872887675084633052e+00 -2.666428201340922399e+00
5.953338191181682504e+00 -2.674952744163865859e+00
6.033788707278731955e+00 -2.663780651150735146e+00
6.114239223375781407e+00 -2.664078058843142749e+00
6.194689739472831747e+00 -2.712018587504126277e+00
6.275140255569881198e+00 -2.717729228613834369e+00
6.355590771666931538e+00 -2.672524651992204348e+00
6.436041287763980989e+00 -2.641884685348560691e+00
6.516491803861030441e+00 -2.652134825996588674e+00
6.596942319958079892e+00 -2.681202156841906881e+00
6.677392836055131120e+00 -2.674380801408027253e+00
6.757843352152180572e+00 -2.659925178793693501e+00
6.838293868249230023e+00 -2.642230227042409396e+00
6.918744384346279475e+00 -2.629447648460873754e+00
6.999194900443328926e+00 -2.632240104834503214e+00
7.079645416540378378e+00 -2.653473397597794659e+00
7.160095932637429605e+00 -2.685098446481270162e+00
7.240546448734479057e+00 -2.714394977947233389e+00
7.320996964831528508e+00 -2.724835313756366784e+00
7.401447480928577960e+00 -2.716403410853573064e+00
7.481897997025627411e+00 -2.702532821762383186e+00
7.562348513122678639e+00 -2.697463366740400215e+00
7.642799029219728091e+00 -2.699050563802253055e+00
7.723249545316777542e+00 -2.719378291443530937e+00
7.803700061413826994e+00 -2.713698921599476233e+00
7.884150577510876445e+00 -2.697884849901722060e+00
7.964601093607927673e+00 -2.699430873818642773e+00
8.045051609704977125e+00 -2.697316518134619923e+00
8.125502125802025688e+00 -2.701054663793386990e+00
8.205952641899076028e+00 -2.703224155592990119e+00
8.286403157996124591e+00 -2.694801770294849685e+00
8.366853674093176707e+00 -2.698936727477772024e+00
8.447304190190225270e+00 -2.719772496571675191e+00
8.527754706287275610e+00 -2.753130250311079497e+00
8.608205222384324173e+00 -2.773312517843620650e+00
8.688655738481374513e+00 -2.768424013491105118e+00
8.769106254578423076e+00 -2.758152550191039332e+00
8.849556770675475192e+00 -2.750120170230158756e+00
8.930007286772523756e+00 -2.742425307138528279e+00
9.010457802869574095e+00 -2.731718136929329965e+00
9.090908318966622659e+00 -2.734687359253150873e+00
9.171358835063672998e+00 -2.760492008399965780e+00
9.251809351160723338e+00 -2.791000589099019713e+00
9.332259867257773678e+00 -2.804966167660908116e+00
9.412710383354822241e+00 -2.779573546344778823e+00
9.493160899451872581e+00 -2.771859852930290913e+00
9.573611415548921144e+00 -2.783869309767184053e+00
9.654061931645971484e+00 -2.816602459660471069e+00
9.734512447743021823e+00 -2.823826652812467586e+00
9.814962963840072163e+00 -2.807275751789378493e+00
9.895413479937120727e+00 -2.827805634404584101e+00
9.975863996034171066e+00 -2.863810788573891930e+00
1.005631451213121963e+01 -2.866384867662488567e+00
1.013676502822827175e+01 -2.850818211037424277e+00
1.021721554432532031e+01 -2.854663447163791279e+00
1.029766606042237065e+01 -2.857345224375307247e+00
