0.000000000000000000e+00 -1.549019599857431873e-01
8.045051609704977069e-02 -1.999119406655573139e-01
1.609010321940995414e-01 -5.761775642173390111e-01
2.413515482911492982e-01 -2.405490683586799072e+00
3.218020643881990828e-01 -3.281441361349861641e+00
4.022525804852488118e-01 -2.780066350805891151e+00
4.827030965822985964e-01 -2.725234268789511027e+00
5.631536126793483810e-01 -2.697022595682160961e+00
6.436041287763981655e-01 -2.630873526135477647e+00
7.240546448734478391e-01 -2.637785025749956880e+00
8.045051609704976237e-01 -2.565803321333784304e+00
8.849556770675472972e-01 -2.476905725740098596e+00
9.654061931645971928e-01 -2.456467756134447900e+00
1.045856709261647088e+00 -2.528489001032367955e+00
1.126307225358696762e+00 -2.655493519271450165e+00
1.206757741455746435e+00 -2.736338410300205748e+00
1.287208257552796331e+00 -2.710330439005197878e+00
1.367658773649846005e+00 -2.629611725105021058e+00
1.448109289746895678e+00 -2.600137920628891042e+00
1.528559805843945352e+00 -2.615420437103136209e+00
1.609010321940995247e+00 -2.585644908195810387e+00
1.689460838038045143e+00 -2.558545369894800192e+00
1.769911354135094594e+00 -2.546885354085694164e+00
1.850361870232144490e+00 -2.547831954338382943e+00
1.930812386329194386e+00 -2.561403010320033591e+00
2.011262902426244281e+00 -2.573364066890180712e+00
2.091713418523294177e+00 -2.578807479834426708e+00
2.172163934620343628e+00 -2.561819989134423103e+00
2.252614450717393524e+00 -2.551172710340230854e+00
2.333064966814443419e+00 -2.573790737559044750e+00
2.413515482911492871e+00 -2.612059277985639305e+00
2.493965999008542767e+00 -2.620690126724396940e+00
2.574416515105592662e+00 -2.577939769970886807e+00
2.654867031202642558e+00 -2.516405966713908704e+00
2.735317547299692009e+00 -2.511994792634884455e+00
2.815768063396741905e+00 -2.559871896181354245e+00
2.896218579493791356e+00 -2.590321336001546015e+00
2.976669095590841252e+00 -2.597522581734306168e+00
3.057119611687890703e+00 -2.613285919992305306e+00
3.137570127784940599e+00 -2.623447381828384994e+00
3.218020643881990495e+00 -2.643203766559536927e+00
3.298471159979039946e+00 -2.670064112556728375e+00
3.378921676076090286e+00 -2.670135440888171896e+00
3.459372192173139737e+00 -2.661869024380269622e+00
3.539822708270189189e+00 -2.651500179172296523e+00
3.620273224367239528e+00 -2.614196178698956263e+00
3.700723740464288980e+00 -2.573417209004414286e+00
3.781174256561339320e+00 -2.587066132344068237e+00
3.861624772658388771e+00 -2.620885924284104274e+00
3.942075288755438223e+00 -2.648140374402674802e+00
4.022525804852488562e+00 -2.624293102651291676e+00
4.102976320949538014e+00 -2.594818881827864576e+00
4.183426837046588354e+00 -2.573832689425753273e+00
4.263877353143637805e+00 -2.593737461957205781e+00
4.344327869240687257e+00 -2.644522817008916782e+00
4.424778385337737596e+00 -2.657401755663287624e+00
4.505228901434787048e+00 -2.653608471648684297e+00
4.585679417531836499e+00 -2.679128071786670340e+00
4.666129933628886839e+00 -2.728642379311148058e+00
4.746580449725936290e+00 -2.682924868744365199e+00
4.827030965822985742e+00 -2.626343470773408129e+00
4.907481481920036082e+00 -2.610377050892947803e+00
4.987931998017085533e+00 -2.625791111305144643e+00
5.068382514114135873e+00 -2.630348130407042184e+00
5.148833030211185324e+00 -2.628618965000935948e+00
5.229283546308234776e+00 -2.612920495558817890e+00
5.309734062405285115e+00 -2.602871538090136827e+00
5.390184578502334567e+00 -2.602229438701669118e+00
5.470635094599384018e+00 -2.620365338708717129e+00
5.551085610696433470e+00 -2.649389855723236931e+00
5.631536126793483810e+00 -2.659770130012981681e+00
5.711986642890533261e+00 -2.665964085329874500e+00
5.792437158987582713e+00 -2.692993063437140400e+00
5.872887675084633052e+00 -2.714294094487286202e+00
5.953338191181682504e+00 -2.694250414365516377e+00
6.033788707278731955e+00 -2.624905487946445071e+00
6.114239223375781407e+00 -2.627359035213634009e+00
6.194689739472831747e+00 -2.649088067946820058e+00
6.275140255569881198e+00 -2.633982182122689863e+00
6.355590771666931538e+00 -2.635426340167431825e+00
6.436041287763980989e+00 -2.680457843205244828e+00
6.516491803861030441e+00 -2.687508893190046155e+00
6.596942319958079892e+00 -2.663059848828014609e+00
6.677392836055131120e+00 -2.656654480897740811e+00
6.757843352152180572e+00 -2.667486513745683130e+00
6.838293868249230023e+00 -2.686799904256397920e+00
6.918744384346279475e+00 -2.709243146474585195e+00
6.999194900443328926e+00 -2.721477748339562908e+00
7.079645416540378378e+00 -2.731139205223514832e+00
7.160095932637429605e+00 -2.722836926495967091e+00
7.240546448734479057e+00 -2.712371842239682529e+00
7.320996964831528508e+00 -2.701164578245502046e+00
7.401447480928577960e+00 -2.699255929145007560e+00
7.481897997025627411e+00 -2.714546439327676364e+00
7.562348513122678639e+00 -2.734596690122477192e+00
7.642799029219728091e+00 -2.753018905044315456e+00
7.723249545316777542e+00 -2.761824771442669135e+00
7.803700061413826994e+00 -2.763212927832156218e+00
7.884150577510876445e+00 -2.768209902522817956e+00
7.964601093607927673e+00 -2.765793831408356329e+00
8.045051609704977125e+00 -2.736608261803024522e+00
8.125502125802025688e+00 -2.706491988181392472e+00
8.205952641899076028e+00 -2.720285917408540310e+00
8.286403157996124591e+00 -2.751106245811828277e+00
8.366853674093176707e+00 -2.760379100903168847e+00
8.447304190190225270e+00 -2.775129749407518442e+00
8.527754706287275610e+00 -2.781045717270970385e+00
8.608205222384324173e+00 -2.779653243616947211e+00
8.688655738481374513e+00 -2.758504677153877704e+00
8.769106254578423076e+00 -2.729397093175213396e+00
8.849556770675475192e+00 -2.707333748536966400e+00
8.930007286772523756e+00 -2.739873870178280768e+00
9.010457802869574095e+00 -2.809300935821024581e+00
9.090908318966622659e+00 -2.834988024156918751e+00
9.171358835063672998e+00 -2.794346385726734550e+00
9.251809351160723338e+00 -2.766611887643817713e+00
9.332259867257773678e+00 -2.789606954204492339e+00
9.412710383354822241e+00 -2.792499027159662806e+00
9.493160899451872581e+00 -2.784733853332828968e+00
9.573611415548921144e+00 -2.794391775183418858e+00
9.654061931645971484e+00 -2.825855635353498041e+00
9.734512447743021823e+00 -2.862397649509196285e+00
9.814962963840072163e+00 -2.876161607882444127e+00
9.895413479937120727e+00 -2.878067795821132258e+00
9.975863996034171066e+00 -2.881256114287107817e+00
1.005631451213121963e+01 -2.851385389434506923e+00
1.013676502822827175e+01 -2.818055392292988071e+00
1.021721554432532031e+01 -2.806911807542289417e+00
1.029766606042237065e+01 -2.805295697977518987e+00
