0.000000000000000000e+00 -1.549019599857431873e-01
8.045051609704977069e-02 -1.863539004302009472e-01
1.609010321940995414e-01 -4.637741884926778746e-01
2.413515482911492982e-01 -1.026571402024668789e+00
3.218020643881990828e-01 -1.447261892369259950e+00
4.022525804852488118e-01 -1.902712712492402369e+00
4.827030965822985964e-01 -2.373741081984844570e+00
5.631536126793483810e-01 -2.758360401899086156e+00
6.436041287763981655e-01 -2.953263914863361261e+00
7.240546448734478391e-01 -3.085890163384410023e+00
8.045051609704976237e-01 -3.237197132294229007e+00
8.849556770675472972e-01 -3.383255132504877416e+00
9.654061931645971928e-01 -3.479988972186317309e+00
1.045856709261647088e+00 -3.562661119568688139e+00
1.126307225358696762e+00 -3.563712603976595172e+00
1.206757741455746435e+00 -3.502782250095749728e+00
1.287208257552796331e+00 -3.477881620412081709e+00
1.367658773649846005e+00 -3.585916887875398196e+00
1.448109289746895678e+00 -3.666416887751816844e+00
1.528559805843945352e+00 -3.600540672744532156e+00
1.609010321940995247e+00 -3.421798024412183281e+00
1.689460838038045143e+00 -3.288960994371569413e+00
1.769911354135094594e+00 -3.197453172158336798e+00
1.850361870232144490e+00 -3.123756459959874832e+00
1.930812386329194386e+00 -3.052318451929608045e+00
2.011262902426244281e+00 -2.961261572340425197e+00
2.091713418523294177e+00 -2.880237754616653323e+00
2.172163934620343628e+00 -2.865018285018182453e+00
2.252614450717393524e+00 -2.912927395056519320e+00
2.333064966814443419e+00 -2.990710393541530010e+00
2.413515482911492871e+00 -3.023580969186571821e+00
2.493965999008542767e+00 -3.022063593059643338e+00
2.574416515105592662e+00 -3.014717131118195059e+00
2.654867031202642558e+00 -3.022187491470668341e+00
2.735317547299692009e+00 -3.010122555837090097e+00
2.815768063396741905e+00 -3.021251447302649495e+00
2.896218579493791356e+00 -3.052502273179950709e+00
2.976669095590841252e+00 -3.050526577162401498e+00
3.057119611687890703e+00 -3.029112877079003230e+00
3.137570127784940599e+00 -3.027363420308700537e+00
3.218020643881990495e+00 -3.034150432369822514e+00
3.298471159979039946e+00 -3.034497920988552977e+00
3.378921676076090286e+00 -3.091325205141000065e+00
3.459372192173139737e+00 -3.100256748766844428e+00
3.539822708270189189e+00 -3.094101954890909223e+00
3.620273224367239528e+00 -3.063982432961144475e+00
3.700723740464288980e+00 -3.069490517333243851e+00
3.781174256561339320e+00 -3.103158635794329268e+00
3.861624772658388771e+00 -3.120585260374685976e+00
3.942075288755438223e+00 -3.105679669422708677e+00
4.022525804852488562e+00 -3.128854362459026373e+00
4.102976320949538014e+00 -3.143656305164077569e+00
4.183426837046588354e+00 -3.089863386424884784e+00
4.263877353143637805e+00 -3.060648521761952789e+00
4.344327869240687257e+00 -3.064514144007016050e+00
4.424778385337737596e+00 -3.060057143948341274e+00
4.505228901434787048e+00 -3.056587160897782152e+00
4.585679417531836499e+00 -3.059812812295127582e+00
4.666129933628886839e+00 -3.079645653332719224e+00
4.746580449725936290e+00 -3.076123970773243954e+00
4.827030965822985742e+00 -3.045455254345814655e+00
4.907481481920036082e+00 -3.031942130302375471e+00
4.987931998017085533e+00 -3.033016282508533834e+00
5.068382514114135873e+00 -3.060078296238740947e+00
5.148833030211185324e+00 -3.114148776509260585e+00
5.229283546308234776e+00 -3.133076565528451152e+00
5.309734062405285115e+00 -3.127390013901411692e+00
5.390184578502334567e+00 -3.145423526096141842e+00
5.470635094599384018e+00 -3.171955687468092755e+00
5.551085610696433470e+00 -3.180751377166638694e+00
5.631536126793483810e+00 -3.180139938479967565e+00
5.711986642890533261e+00 -3.163365295146528755e+00
5.792437158987582713e+00 -3.140987065797288036e+00
5.872887675084633052e+00 -3.117241640402927949e+00
5.953338191181682504e+00 -3.111762641361181636e+00
6.033788707278731955e+00 -3.140918190390887155e+00
6.114239223375781407e+00 -3.178129994944091319e+00
6.194689739472831747e+00 -3.186927853271097177e+00
6.275140255569881198e+00 -3.149283505049876197e+00
6.355590771666931538e+00 -3.125666939833847469e+00
6.436041287763980989e+00 -3.143590554523003178e+00
6.516491803861030441e+00 -3.177427865749856473e+00
6.596942319958079892e+00 -3.195847691513716171e+00
6.677392836055131120e+00 -3.200657889717396287e+00
6.757843352152180572e+00 -3.190421128614392199e+00
6.838293868249230023e+00 -3.165581084007803359e+00
6.918744384346279475e+00 -3.169731339993078656e+00
6.999194900443328926e+00 -3.182823756050354724e+00
7.079645416540378378e+00 -3.187096390099378951e+00
7.160095932637429605e+00 -3.156522147049444005e+00
7.240546448734479057e+00 -3.131215708798479103e+00
7.320996964831528508e+00 -3.114591674662000376e+00
7.401447480928577960e+00 -3.103316885005133141e+00
7.481897997025627411e+00 -3.100068380865587336e+00
7.562348513122678639e+00 -3.119786791836724582e+00
7.642799029219728091e+00 -3.174526550626985077e+00
7.723249545316777542e+00 -3.217228257516147938e+00
7.803700061413826994e+00 -3.196654426440018959e+00
7.884150577510876445e+00 -3.155032803338615022e+00
7.964601093607927673e+00 -3.151171311901593608e+00
8.045051609704977125e+00 -3.167727173169510468e+00
8.125502125802025688e+00 -3.185729059460692625e+00
8.205952641899076028e+00 -3.207285668687855029e+00
8.286403157996124591e+00 -3.219530575316175369e+00
8.366853674093176707e+00 -3.230362211235311420e+00
8.447304190190225270e+00 -3.251426839863491125e+00
8.527754706287275610e+00 -3.242503598746160787e+00
8.608205222384324173e+00 -3.229668290215022441e+00
8.688655738481374513e+00 -3.237549805588316065e+00
8.769106254578423076e+00 -3.243999526074462736e+00
8.849556770675475192e+00 -3.244012697332752992e+00
8.930007286772523756e+00 -3.237170248094899172e+00
9.010457802869574095e+00 -3.229664042273720170e+00
9.090908318966622659e+00 -3.236267672780297477e+00
9.171358835063672998e+00 -3.245292163904859084e+00
9.251809351160723338e+00 -3.272097773705193280e+00
9.332259867257773678e+00 -3.294000255253410447e+00
9.412710383354822241e+00 -3.280743803618578980e+00
9.493160899451872581e+00 -3.272396105789978193e+00
9.573611415548921144e+00 -3.277103192250116148e+00
9.654061931645971484e+00 -3.281442572262669444e+00
9.734512447743021823e+00 -3.268018240731199509e+00
9.814962963840072163e+00 -3.267804031173683121e+00
9.895413479937120727e+00 -3.285463221916612664e+00
9.975863996034171066e+00 -3.309612628890288288e+00
1.005631451213121963e+01 -3.306951855228795534e+00
1.013676502822827175e+01 -3.296499352541055750e+00
1.021721554432532031e+01 -3.276399431094956682e+00
1.029766606042237065e+01 -3.269097290088979868e+00
