0.000000000000000000e+00 -1.549019599857431873e-01
8.045051609704977069e-02 -1.959528699536247920e-01
1.609010321940995414e-01 -5.349494104069427713e-01
2.413515482911492982e-01 -1.230866706443605629e+00
3.218020643881990828e-01 -1.747830669460667341e+00
4.022525804852488118e-01 -2.390834775800728451e+00
4.827030965822985964e-01 -2.817939769890982049e+00
5.631536126793483810e-01 -3.031487441640988934e+00
6.436041287763981655e-01 -3.228613150005844812e+00
7.240546448734478391e-01 -3.418663705914589901e+00
8.045051609704976237e-01 -3.545398982977916003e+00
8.849556770675472972e-01 -3.567895814377413100e+00
9.654061931645971928e-01 -3.510849122695785418e+00
1.045856709261647088e+00 -3.490227360196180850e+00
1.126307225358696762e+00 -3.559993840332133619e+00
1.206757741455746435e+00 -3.670352039463725902e+00
1.287208257552796331e+00 -3.719498660757015518e+00
1.367658773649846005e+00 -3.657828699429859665e+00
1.448109289746895678e+00 -3.614007043997164548e+00
1.528559805843945352e+00 -3.583475177169507031e+00
1.609010321940995247e+00 -3.496443924792338009e+00
1.689460838038045143e+00 -3.378392044761450830e+00
1.769911354135094594e+00 -3.263887500974154587e+00
1.850361870232144490e+00 -3.196613644107968888e+00
1.930812386329194386e+00 -3.152490458631842074e+00
2.011262902426244281e+00 -3.106355892205285851e+00
2.091713418523294177e+00 -3.046175423634475798e+00
2.172163934620343628e+00 -3.009586727245569637e+00
2.252614450717393524e+00 -3.037980082654030412e+00
2.333064966814443419e+00 -3.079801398738081009e+00
2.413515482911492871e+00 -3.113258507442113743e+00
2.493965999008542767e+00 -3.084915986795278453e+00
2.574416515105592662e+00 -3.076883520769951641e+00
2.654867031202642558e+00 -3.108248488490719108e+00
2.735317547299692009e+00 -3.150416076926175091e+00
2.815768063396741905e+00 -3.155497620104679157e+00
2.896218579493791356e+00 -3.115124426070034591e+00
2.976669095590841252e+00 -3.095909490556719046e+00
3.057119611687890703e+00 -3.084894623658001045e+00
3.137570127784940599e+00 -3.084786930289575402e+00
3.218020643881990495e+00 -3.085762699740610682e+00
3.298471159979039946e+00 -3.097784363563929055e+00
3.378921676076090286e+00 -3.094524503303123009e+00
3.459372192173139737e+00 -3.054555605019765530e+00
3.539822708270189189e+00 -3.044343781348076483e+00
3.620273224367239528e+00 -3.051578499262891153e+00
3.700723740464288980e+00 -3.030062497533084986e+00
3.781174256561339320e+00 -3.039973160806197949e+00
3.861624772658388771e+00 -3.095479436114266125e+00
3.942075288755438223e+00 -3.119399371829148393e+00
4.022525804852488562e+00 -3.084718170381274938e+00
4.102976320949538014e+00 -3.052251863737851068e+00
4.183426837046588354e+00 -3.060756475680455058e+00
4.263877353143637805e+00 -3.068004262091452272e+00
4.344327869240687257e+00 -3.076934816938249551e+00
4.424778385337737596e+00 -3.051956846213843555e+00
4.505228901434787048e+00 -3.042566195931171169e+00
4.585679417531836499e+00 -3.060980008657955498e+00
4.666129933628886839e+00 -3.081262127028268072e+00
4.746580449725936290e+00 -3.108590227902273906e+00
4.827030965822985742e+00 -3.142735860309093354e+00
4.907481481920036082e+00 -3.175356108328106775e+00
4.987931998017085533e+00 -3.197367177335053601e+00
5.068382514114135873e+00 -3.186257000041036846e+00
5.148833030211185324e+00 -3.129094327822766530e+00
5.229283546308234776e+00 -3.125794569461420647e+00
5.309734062405285115e+00 -3.166746281698597176e+00
5.390184578502334567e+00 -3.188540729585031208e+00
5.470635094599384018e+00 -3.175020919215682635e+00
5.551085610696433470e+00 -3.181541636880958812e+00
5.631536126793483810e+00 -3.163550826886163847e+00
5.711986642890533261e+00 -3.133764869880267145e+00
5.792437158987582713e+00 -3.122597555000546699e+00
5.872887675084633052e+00 -3.131647173012769958e+00
5.953338191181682504e+00 -3.128530371360574325e+00
6.033788707278731955e+00 -3.123223455474751109e+00
6.114239223375781407e+00 -3.167809388852575569e+00
6.194689739472831747e+00 -3.197638535979516750e+00
6.275140255569881198e+00 -3.205546078644391006e+00
6.355590771666931538e+00 -3.177600586164559537e+00
6.436041287763980989e+00 -3.165585998756781816e+00
6.516491803861030441e+00 -3.183422729089939285e+00
6.596942319958079892e+00 -3.203414958079276342e+00
6.677392836055131120e+00 -3.209681960384686672e+00
6.757843352152180572e+00 -3.186393656820976528e+00
6.838293868249230023e+00 -3.171981623394843908e+00
6.918744384346279475e+00 -3.167535922461066189e+00
6.999194900443328926e+00 -3.196478563800545736e+00
7.079645416540378378e+00 -3.202180774092306947e+00
7.160095932637429605e+00 -3.193907890987396581e+00
7.240546448734479057e+00 -3.208520923691654758e+00
7.320996964831528508e+00 -3.241750008432137786e+00
7.401447480928577960e+00 -3.238609849093784909e+00
7.481897997025627411e+00 -3.202447164619181219e+00
7.562348513122678639e+00 -3.173512470477745762e+00
7.642799029219728091e+00 -3.184849435201267731e+00
7.723249545316777542e+00 -3.202168690762390746e+00
7.803700061413826994e+00 -3.215554185250551367e+00
7.884150577510876445e+00 -3.211452894854556650e+00
7.964601093607927673e+00 -3.201699015986531283e+00
8.045051609704977125e+00 -3.208851235525775891e+00
8.125502125802025688e+00 -3.231281807489082336e+00
8.205952641899076028e+00 -3.246499801792392503e+00
8.286403157996124591e+00 -3.232491197754798762e+00
8.366853674093176707e+00 -3.211427374067232776e+00
8.447304190190225270e+00 -3.191784647773380446e+00
8.527754706287275610e+00 -3.192044245053294649e+00
8.608205222384324173e+00 -3.216753515283447218e+00
8.688655738481374513e+00 -3.266097607633089872e+00
8.769106254578423076e+00 -3.291492707488184788e+00
8.849556770675475192e+00 -3.279791508128770516e+00
8.930007286772523756e+00 -3.256829105442529571e+00
9.010457802869574095e+00 -3.246842915334283930e+00
9.090908318966622659e+00 -3.266321649932352855e+00
9.171358835063672998e+00 -3.285633108673805758e+00
9.251809351160723338e+00 -3.265465662979769146e+00
9.332259867257773678e+00 -3.260725979320746148e+00
9.412710383354822241e+00 -3.281335178314769951e+00
9.493160899451872581e+00 -3.277552295477817346e+00
9.573611415548921144e+00 -3.270807951540228409e+00
9.654061931645971484e+00 -3.279152750269389127e+00
9.734512447743021823e+00 -3.291190778819592211e+00
9.814962963840072163e+00 -3.318502771901725712e+00
9.895413479937120727e+00 -3.347197582011916417e+00
9.975863996034171066e+00 -3.355702236475647915e+00
1.005631451213121963e+01 -3.342766249578932314e+00
1.013676502822827175e+01 -3.325581953253881728e+00
1.021721554432532031e+01 -3.333257462808982385e+00
1.029766606042237065e+01 -3.348681089550596290e+00
