0.000000000000000000e+00 -1.549019599857431873e-01
8.045051609704977069e-02 -1.882720650370327820e-01
1.609010321940995414e-01 -4.972969608089752858e-01
2.413515482911492982e-01 -1.263310749750873541e+00
3.218020643881990828e-01 -1.799952225263407479e+00
4.022525804852488118e-01 -2.159490164790568656e+00
4.827030965822985964e-01 -2.524204577564927110e+00
5.631536126793483810e-01 -2.862112681324299412e+00
6.436041287763981655e-01 -3.069957188007227167e+00
7.240546448734478391e-01 -3.298883304783841286e+00
8.045051609704976237e-01 -3.468849475177766095e+00
8.849556770675472972e-01 -3.535485215923036773e+00
9.654061931645971928e-01 -3.511401940305381331e+00
1.045856709261647088e+00 -3.484372963397687428e+00
1.126307225358696762e+00 -3.526542277081039956e+00
1.206757741455746435e+00 -3.642472199666305421e+00
1.287208257552796331e+00 -3.694508449052221088e+00
1.367658773649846005e+00 -3.694815449097072602e+00
1.448109289746895678e+00 -3.631440639235704371e+00
1.528559805843945352e+00 -3.563067107625172980e+00
1.609010321940995247e+00 -3.464510527273994001e+00
1.689460838038045143e+00 -3.364713918201909237e+00
1.769911354135094594e+00 -3.282346712926713206e+00
1.850361870232144490e+00 -3.180583908290502748e+00
1.930812386329194386e+00 -3.105969678789795463e+00
2.011262902426244281e+00 -3.066679866499023799e+00
2.091713418523294177e+00 -3.048956986977398476e+00
2.172163934620343628e+00 -3.061770287475464425e+00
2.252614450717393524e+00 -3.095502936485146517e+00
2.333064966814443419e+00 -3.140357050114938264e+00
2.413515482911492871e+00 -3.163192339325287428e+00
2.493965999008542767e+00 -3.154519870598036846e+00
2.574416515105592662e+00 -3.139099222934758959e+00
2.654867031202642558e+00 -3.139284860497603358e+00
2.735317547299692009e+00 -3.153153152209029031e+00
2.815768063396741905e+00 -3.163095346658995943e+00
2.896218579493791356e+00 -3.136082921404388379e+00
2.976669095590841252e+00 -3.158472928738751406e+00
3.057119611687890703e+00 -3.187647409912849561e+00
3.137570127784940599e+00 -3.199424774586373310e+00
3.218020643881990495e+00 -3.155809259125083699e+00
3.298471159979039946e+00 -3.127729622095498652e+00
3.378921676076090286e+00 -3.146106414152080255e+00
3.459372192173139737e+00 -3.182614801168607066e+00
3.539822708270189189e+00 -3.199514848752021301e+00
3.620273224367239528e+00 -3.166656518482302562e+00
3.700723740464288980e+00 -3.086986612826448262e+00
3.781174256561339320e+00 -3.024666303804108836e+00
3.861624772658388771e+00 -2.999172229446833704e+00
3.942075288755438223e+00 -2.996986394719602043e+00
4.022525804852488562e+00 -3.016874617729535135e+00
4.102976320949538014e+00 -3.037841263923457991e+00
4.183426837046588354e+00 -3.060913162618909222e+00
4.263877353143637805e+00 -3.129740291525386020e+00
4.344327869240687257e+00 -3.160283130934455009e+00
4.424778385337737596e+00 -3.142494839096854786e+00
4.505228901434787048e+00 -3.097670783834244990e+00
4.585679417531836499e+00 -3.061178438184652961e+00
4.666129933628886839e+00 -3.054707288470235316e+00
4.746580449725936290e+00 -3.080034194353882704e+00
4.827030965822985742e+00 -3.104535239696112559e+00
4.907481481920036082e+00 -3.109293762318131371e+00
4.987931998017085533e+00 -3.093456317511763753e+00
5.068382514114135873e+00 -3.102637309179632208e+00
5.148833030211185324e+00 -3.121316334445079388e+00
5.229283546308234776e+00 -3.120736543648691796e+00
5.309734062405285115e+00 -3.098281445558980440e+00
5.390184578502334567e+00 -3.086419007272032999e+00
5.470635094599384018e+00 -3.114019521044567806e+00
5.551085610696433470e+00 -3.155623982119355020e+00
5.631536126793483810e+00 -3.162046417539850385e+00
5.711986642890533261e+00 -3.142976260770140140e+00
5.792437158987582713e+00 -3.117042139754727881e+00
5.872887675084633052e+00 -3.124623368067236395e+00
5.953338191181682504e+00 -3.156070821719121788e+00
6.033788707278731955e+00 -3.150621798118541594e+00
6.114239223375781407e+00 -3.115821331761819302e+00
6.194689739472831747e+00 -3.084920224676940492e+00
6.275140255569881198e+00 -3.089107496307923917e+00
6.355590771666931538e+00 -3.102357246904583477e+00
6.436041287763980989e+00 -3.122072949082637994e+00
6.516491803861030441e+00 -3.125819145823219181e+00
6.596942319958079892e+00 -3.140195011711815365e+00
6.677392836055131120e+00 -3.176940266795529766e+00
6.757843352152180572e+00 -3.206046840519046981e+00
6.838293868249230023e+00 -3.236482173194495271e+00
6.918744384346279475e+00 -3.221889337823949262e+00
6.999194900443328926e+00 -3.203509383044350844e+00
7.079645416540378378e+00 -3.228132057247294462e+00
7.160095932637429605e+00 -3.272803276814479023e+00
7.240546448734479057e+00 -3.250539859493213779e+00
7.320996964831528508e+00 -3.200953028213008977e+00
7.401447480928577960e+00 -3.162088269283093833e+00
7.481897997025627411e+00 -3.157012871443997337e+00
7.562348513122678639e+00 -3.163351535870295717e+00
7.642799029219728091e+00 -3.162104269435952020e+00
7.723249545316777542e+00 -3.142741581778274451e+00
7.803700061413826994e+00 -3.142732527533098619e+00
7.884150577510876445e+00 -3.153754784480446105e+00
7.964601093607927673e+00 -3.186077600925961928e+00
8.045051609704977125e+00 -3.225230416479613282e+00
8.125502125802025688e+00 -3.222412101689582364e+00
8.205952641899076028e+00 -3.211586083181901863e+00
8.286403157996124591e+00 -3.222424204399707115e+00
8.366853674093176707e+00 -3.239375928225029622e+00
8.447304190190225270e+00 -3.254809523105590685e+00
8.527754706287275610e+00 -3.228889721805970225e+00
8.608205222384324173e+00 -3.219874120466164502e+00
8.688655738481374513e+00 -3.206290090032548612e+00
8.769106254578423076e+00 -3.193560889676571257e+00
8.849556770675475192e+00 -3.203527389655682622e+00
8.930007286772523756e+00 -3.234069955839671717e+00
9.010457802869574095e+00 -3.220755187977069500e+00
9.090908318966622659e+00 -3.191178942194119017e+00
9.171358835063672998e+00 -3.185902590020238456e+00
9.251809351160723338e+00 -3.225691565887767620e+00
9.332259867257773678e+00 -3.280137066988103811e+00
9.412710383354822241e+00 -3.291093308623157299e+00
9.493160899451872581e+00 -3.273074046746276888e+00
9.573611415548921144e+00 -3.271718173293498122e+00
9.654061931645971484e+00 -3.281853551649928757e+00
9.734512447743021823e+00 -3.291039200543348198e+00
9.814962963840072163e+00 -3.295817985454344345e+00
9.895413479937120727e+00 -3.284949484026879585e+00
9.975863996034171066e+00 -3.281583462429036757e+00
1.005631451213121963e+01 -3.262370420645362756e+00
1.013676502822827175e+01 -3.247752471947405351e+00
1.021721554432532031e+01 -3.266999576818744089e+00
1.029766606042237065e+01 -3.285223423651118857e+00
