0.000000000000000000e+00 -1.549019599857431873e-01
8.045051609704977069e-02 -1.978015224381949044e-01
1.609010321940995414e-01 -4.758720584768067474e-01
2.413515482911492982e-01 -1.102654938885349489e+00
3.218020643881990828e-01 -1.574900998986620504e+00
4.022525804852488118e-01 -2.050440297168693693e+00
4.827030965822985964e-01 -2.512728694567968102e+00
5.631536126793483810e-01 -2.836912931723650111e+00
6.436041287763981655e-01 -3.144982580487706958e+00
7.240546448734478391e-01 -3.356241979926722685e+00
8.045051609704976237e-01 -3.496713380681450545e+00
8.849556770675472972e-01 -3.565896869154464355e+00
9.654061931645971928e-01 -3.653753658812155525e+00
1.045856709261647088e+00 -3.688796476202979679e+00
1.126307225358696762e+00 -3.706300074715078274e+00
1.206757741455746435e+00 -3.703375304305258631e+00
1.287208257552796331e+00 -3.687093345110450393e+00
1.367658773649846005e+00 -3.561550460343482882e+00
1.448109289746895678e+00 -3.418046520934414190e+00
1.528559805843945352e+00 -3.365871189121524054e+00
1.609010321940995247e+00 -3.388167706766900267e+00
1.689460838038045143e+00 -3.427285197481964030e+00
1.769911354135094594e+00 -3.368374000102481780e+00
1.850361870232144490e+00 -3.279727720038106753e+00
1.930812386329194386e+00 -3.199097330401793560e+00
2.011262902426244281e+00 -3.152664186273577140e+00
2.091713418523294177e+00 -3.154147746777745009e+00
2.172163934620343628e+00 -3.120230802261462433e+00
2.252614450717393524e+00 -3.068930148084592968e+00
2.333064966814443419e+00 -3.004624554643914536e+00
2.413515482911492871e+00 -2.994837134995523176e+00
2.493965999008542767e+00 -3.023169080350101900e+00
2.574416515105592662e+00 -3.062763782775600685e+00
2.654867031202642558e+00 -3.074296651713196216e+00
2.735317547299692009e+00 -3.095063646459493611e+00
2.815768063396741905e+00 -3.143143231007972105e+00
2.896218579493791356e+00 -3.173752283731978263e+00
2.976669095590841252e+00 -3.172404141782236398e+00
3.057119611687890703e+00 -3.127576246480183286e+00
3.137570127784940599e+00 -3.080800239131549212e+00
3.218020643881990495e+00 -3.051634294832962002e+00
3.298471159979039946e+00 -3.034706369281368943e+00
3.378921676076090286e+00 -3.038835531116423461e+00
3.459372192173139737e+00 -3.067207484561499609e+00
3.539822708270189189e+00 -3.083716594226218799e+00
3.620273224367239528e+00 -3.085665987363513718e+00
3.700723740464288980e+00 -3.099381235182655736e+00
3.781174256561339320e+00 -3.140192424894592715e+00
3.861624772658388771e+00 -3.189182047947795251e+00
3.942075288755438223e+00 -3.174368417591675318e+00
4.022525804852488562e+00 -3.118413213567473807e+00
4.102976320949538014e+00 -3.113439967312992440e+00
4.183426837046588354e+00 -3.135534372727636576e+00
4.263877353143637805e+00 -3.130468769291555819e+00
4.344327869240687257e+00 -3.129454546688226646e+00
4.424778385337737596e+00 -3.143843296427664136e+00
4.505228901434787048e+00 -3.121194633972242727e+00
4.585679417531836499e+00 -3.091473123094221620e+00
4.666129933628886839e+00 -3.094751203444996879e+00
4.746580449725936290e+00 -3.109306011403240255e+00
4.827030965822985742e+00 -3.097409813142731672e+00
4.907481481920036082e+00 -3.114327030078853475e+00
4.987931998017085533e+00 -3.140905679664502514e+00
5.068382514114135873e+00 -3.146297167375264436e+00
5.148833030211185324e+00 -3.152449038374748103e+00
5.229283546308234776e+00 -3.151337208642132737e+00
5.309734062405285115e+00 -3.154918480284484961e+00
5.390184578502334567e+00 -3.166638237816176371e+00
5.470635094599384018e+00 -3.161781891629504404e+00
5.551085610696433470e+00 -3.143592748439290929e+00
5.631536126793483810e+00 -3.141485039602667229e+00
5.711986642890533261e+00 -3.143406459675977871e+00
5.792437158987582713e+00 -3.136264370517365840e+00
5.872887675084633052e+00 -3.138020305250471598e+00
5.953338191181682504e+00 -3.133292868821996979e+00
6.033788707278731955e+00 -3.146944967327955922e+00
6.114239223375781407e+00 -3.142386968349141441e+00
6.194689739472831747e+00 -3.139731391555709017e+00
6.275140255569881198e+00 -3.162223682222351062e+00
6.355590771666931538e+00 -3.174428460980542877e+00
6.436041287763980989e+00 -3.176559736435178749e+00
6.516491803861030441e+00 -3.175920922930864698e+00
6.596942319958079892e+00 -3.206150910885440464e+00
6.677392836055131120e+00 -3.226372496542995183e+00
6.757843352152180572e+00 -3.201190855374531630e+00
6.838293868249230023e+00 -3.189732765060580899e+00
6.918744384346279475e+00 -3.203354446057510962e+00
6.999194900443328926e+00 -3.211603312880536798e+00
7.079645416540378378e+00 -3.195243454734643329e+00
7.160095932637429605e+00 -3.183297038915056554e+00
7.240546448734479057e+00 -3.206652280269831845e+00
7.320996964831528508e+00 -3.254412654440899111e+00
7.401447480928577960e+00 -3.253152872383969552e+00
7.481897997025627411e+00 -3.252826374472025606e+00
7.562348513122678639e+00 -3.251405701019430605e+00
7.642799029219728091e+00 -3.246409475308955628e+00
7.723249545316777542e+00 -3.239221322049681717e+00
7.803700061413826994e+00 -3.230717860874631864e+00
7.884150577510876445e+00 -3.219101334864787667e+00
7.964601093607927673e+00 -3.215471846511971599e+00
8.045051609704977125e+00 -3.225996314715314561e+00
8.125502125802025688e+00 -3.224583404451977220e+00
8.205952641899076028e+00 -3.196128989555449440e+00
8.286403157996124591e+00 -3.176100427844645413e+00
8.366853674093176707e+00 -3.187098720201337443e+00
8.447304190190225270e+00 -3.206865536542577555e+00
8.527754706287275610e+00 -3.208094211558888187e+00
8.608205222384324173e+00 -3.196208727420340789e+00
8.688655738481374513e+00 -3.197427289239880732e+00
8.769106254578423076e+00 -3.223580729101141351e+00
8.849556770675475192e+00 -3.239879777496294189e+00
8.930007286772523756e+00 -3.239600394099298342e+00
9.010457802869574095e+00 -3.244782894744599133e+00
9.090908318966622659e+00 -3.250182808068959872e+00
9.171358835063672998e+00 -3.270077554948601861e+00
9.251809351160723338e+00 -3.283618169374523887e+00
9.332259867257773678e+00 -3.286569655508058574e+00
9.412710383354822241e+00 -3.273645105623095741e+00
9.493160899451872581e+00 -3.251671683200489049e+00
9.573611415548921144e+00 -3.260803970123851592e+00
9.654061931645971484e+00 -3.281018080236460577e+00
9.734512447743021823e+00 -3.290406628052767957e+00
9.814962963840072163e+00 -3.297418193928526975e+00
9.895413479937120727e+00 -3.299161180255933967e+00
9.975863996034171066e+00 -3.295998187141412128e+00
1.005631451213121963e+01 -3.283778970224982441e+00
1.013676502822827175e+01 -3.270536731868034508e+00
1.021721554432532031e+01 -3.252484914530246130e+00
1.029766606042237065e+01 -3.254064888108419318e+00
