0.000000000000000000e+00 -1.549019599857431873e-01
8.045051609704977069e-02 -1.931003228634508850e-01
1.609010321940995414e-01 -4.963087613612697790e-01
2.413515482911492982e-01 -1.179277384306086196e+00
3.218020643881990828e-01 -1.678172907949792902e+00
4.022525804852488118e-01 -2.217306850642145832e+00
4.827030965822985964e-01 -2.619653057888946979e+00
5.631536126793483810e-01 -2.771335214004663428e+00
6.436041287763981655e-01 -2.944395825273586453e+00
7.240546448734478391e-01 -3.163582734458642243e+00
8.045051609704976237e-01 -3.307005093596131040e+00
8.849556770675472972e-01 -3.325444768005788365e+00
9.654061931645971928e-01 -3.416101431622785345e+00
1.045856709261647088e+00 -3.585238813353082588e+00
1.126307225358696762e+00 -3.669812028721987307e+00
1.206757741455746435e+00 -3.630727933125273310e+00
1.287208257552796331e+00 -3.601977317641745113e+00
1.367658773649846005e+00 -3.592237039440913993e+00
1.448109289746895678e+00 -3.584632270416006072e+00
1.528559805843945352e+00 -3.555167653302965913e+00
1.609010321940995247e+00 -3.469311436373953228e+00
1.689460838038045143e+00 -3.386785282962395449e+00
1.769911354135094594e+00 -3.288621512563372207e+00
1.850361870232144490e+00 -3.248722373025021870e+00
1.930812386329194386e+00 -3.205405625092562882e+00
2.011262902426244281e+00 -3.150636716715895513e+00
2.091713418523294177e+00 -3.087516917273216865e+00
2.172163934620343628e+00 -3.061893285856861269e+00
2.252614450717393524e+00 -3.022367076126216023e+00
2.333064966814443419e+00 -3.017879846276740441e+00
2.413515482911492871e+00 -3.047789658716800076e+00
2.493965999008542767e+00 -3.111142376400932275e+00
2.574416515105592662e+00 -3.129058201375402248e+00
2.654867031202642558e+00 -3.093715275412543431e+00
2.735317547299692009e+00 -3.080973972027865049e+00
2.815768063396741905e+00 -3.090991276947944844e+00
2.896218579493791356e+00 -3.100466147044650622e+00
2.976669095590841252e+00 -3.147600571034534944e+00
3.057119611687890703e+00 -3.203885237021069976e+00
3.137570127784940599e+00 -3.181190811875047597e+00
3.218020643881990495e+00 -3.122459346153292348e+00
3.298471159979039946e+00 -3.071802218121992389e+00
3.378921676076090286e+00 -3.072807086601973658e+00
3.459372192173139737e+00 -3.084770810079611625e+00
3.539822708270189189e+00 -3.080636604450083471e+00
3.620273224367239528e+00 -3.092689228606933849e+00
3.700723740464288980e+00 -3.100377729988823550e+00
3.781174256561339320e+00 -3.062146318000639855e+00
3.861624772658388771e+00 -3.038205897522734844e+00
3.942075288755438223e+00 -3.071346234975898426e+00
4.022525804852488562e+00 -3.109755001074426151e+00
4.102976320949538014e+00 -3.104941471342073545e+00
4.183426837046588354e+00 -3.080274641731988616e+00
4.263877353143637805e+00 -3.079212873635995606e+00
4.344327869240687257e+00 -3.090072283474674997e+00
4.424778385337737596e+00 -3.107069623642920497e+00
4.505228901434787048e+00 -3.127944298598439143e+00
4.585679417531836499e+00 -3.151489706158904447e+00
4.666129933628886839e+00 -3.159944219239971375e+00
4.746580449725936290e+00 -3.146898863861147699e+00
4.827030965822985742e+00 -3.142778173431746147e+00
4.907481481920036082e+00 -3.135226627313933978e+00
4.987931998017085533e+00 -3.138955702266712500e+00
5.068382514114135873e+00 -3.132139029268541819e+00
5.148833030211185324e+00 -3.142284009857434945e+00
5.229283546308234776e+00 -3.169088158836016689e+00
5.309734062405285115e+00 -3.165329673770780783e+00
5.390184578502334567e+00 -3.123914934626982998e+00
5.470635094599384018e+00 -3.077569705000741340e+00
5.551085610696433470e+00 -3.064043332072552861e+00
5.631536126793483810e+00 -3.083824887986823970e+00
5.711986642890533261e+00 -3.085918915392376061e+00
5.792437158987582713e+00 -3.096216077284774215e+00
5.872887675084633052e+00 -3.138638365976962330e+00
5.953338191181682504e+00 -3.134741708441240338e+00
6.033788707278731955e+00 -3.084285761215493693e+00
6.114239223375781407e+00 -3.061756244201211619e+00
6.194689739472831747e+00 -3.083494197266897885e+00
6.275140255569881198e+00 -3.118499301476650221e+00
6.355590771666931538e+00 -3.136614002733461248e+00
6.436041287763980989e+00 -3.129743768862784936e+00
6.516491803861030441e+00 -3.125226855939035264e+00
6.596942319958079892e+00 -3.111422094932061011e+00
6.677392836055131120e+00 -3.118146030986217898e+00
6.757843352152180572e+00 -3.152674212452295510e+00
6.838293868249230023e+00 -3.193091834414017782e+00
6.918744384346279475e+00 -3.209993706177854289e+00
6.999194900443328926e+00 -3.203505845586309686e+00
7.079645416540378378e+00 -3.206684852795810947e+00
7.160095932637429605e+00 -3.221421252247747891e+00
7.240546448734479057e+00 -3.223642938085701459e+00
7.320996964831528508e+00 -3.200831538255856312e+00
7.401447480928577960e+00 -3.187317115714306315e+00
7.481897997025627411e+00 -3.175291442659354590e+00
7.562348513122678639e+00 -3.164965954552749761e+00
7.642799029219728091e+00 -3.166101106173941915e+00
7.723249545316777542e+00 -3.165228094366566491e+00
7.803700061413826994e+00 -3.166550952489495696e+00
7.884150577510876445e+00 -3.174771721749042541e+00
7.964601093607927673e+00 -3.186667063261009680e+00
8.045051609704977125e+00 -3.207861660955690475e+00
8.125502125802025688e+00 -3.219581324481932239e+00
8.205952641899076028e+00 -3.225646809239397950e+00
8.286403157996124591e+00 -3.216268048370654054e+00
8.366853674093176707e+00 -3.210522517452863767e+00
8.447304190190225270e+00 -3.226861247282304834e+00
8.527754706287275610e+00 -3.221974432119824705e+00
8.608205222384324173e+00 -3.211757272038564093e+00
8.688655738481374513e+00 -3.202768173768824500e+00
8.769106254578423076e+00 -3.218012546010973640e+00
8.849556770675475192e+00 -3.240941101007897007e+00
8.930007286772523756e+00 -3.247500385364108233e+00
9.010457802869574095e+00 -3.275906177514929407e+00
9.090908318966622659e+00 -3.305976613808773834e+00
9.171358835063672998e+00 -3.310152007588994305e+00
9.251809351160723338e+00 -3.304098178343251924e+00
9.332259867257773678e+00 -3.304052061770065496e+00
9.412710383354822241e+00 -3.306569687961062431e+00
9.493160899451872581e+00 -3.305290083986101468e+00
9.573611415548921144e+00 -3.272331140579324948e+00
9.654061931645971484e+00 -3.257665699937878134e+00
9.734512447743021823e+00 -3.257100784810116334e+00
9.814962963840072163e+00 -3.264873957494615286e+00
9.895413479937120727e+00 -3.262171743622328979e+00
9.975863996034171066e+00 -3.253968773881959820e+00
1.005631451213121963e+01 -3.258102622139484428e+00
1.013676502822827175e+01 -3.262239855764831997e+00
1.021721554432532031e+01 -3.294828686322028855e+00
1.029766606042237065e+01 -3.326997421625510043e+00
