0.000000000000000000e+00 -1.549019599857431873e-01
8.045051609704977069e-02 -1.931265541823716514e-01
1.609010321940995414e-01 -4.710176753220222112e-01
2.413515482911492982e-01 -1.057881034330317327e+00
3.218020643881990828e-01 -1.511818462866782120e+00
4.022525804852488118e-01 -2.016484742662003615e+00
4.827030965822985964e-01 -2.384351251120532478e+00
5.631536126793483810e-01 -2.646560504493704169e+00
6.436041287763981655e-01 -2.862898330462283703e+00
7.240546448734478391e-01 -3.093549520956723864e+00
8.045051609704976237e-01 -3.271211644074080827e+00
8.849556770675472972e-01 -3.368798956124225086e+00
9.654061931645971928e-01 -3.495195489575714021e+00
1.045856709261647088e+00 -3.628128232822588117e+00
1.126307225358696762e+00 -3.675807210622723087e+00
1.206757741455746435e+00 -3.660384124177352039e+00
1.287208257552796331e+00 -3.607279235846573950e+00
1.367658773649846005e+00 -3.572052805928303876e+00
1.448109289746895678e+00 -3.550000161376909880e+00
1.528559805843945352e+00 -3.553117063939680520e+00
1.609010321940995247e+00 -3.479544238990598615e+00
1.689460838038045143e+00 -3.392903228144365180e+00
1.769911354135094594e+00 -3.325446999665236270e+00
1.850361870232144490e+00 -3.300398661829013314e+00
1.930812386329194386e+00 -3.251241630711922959e+00
2.011262902426244281e+00 -3.216703027749587385e+00
2.091713418523294177e+00 -3.212811251649344335e+00
2.172163934620343628e+00 -3.188115435388866548e+00
2.252614450717393524e+00 -3.144731820447201009e+00
2.333064966814443419e+00 -3.086589976378250721e+00
2.413515482911492871e+00 -3.084322388950066163e+00
2.493965999008542767e+00 -3.128051894463721005e+00
2.574416515105592662e+00 -3.147182594961784208e+00
2.654867031202642558e+00 -3.143655895279072965e+00
2.735317547299692009e+00 -3.178919723396478769e+00
2.815768063396741905e+00 -3.211627043812902649e+00
2.896218579493791356e+00 -3.218065212011282039e+00
2.976669095590841252e+00 -3.176042042666810339e+00
3.057119611687890703e+00 -3.159222814229722953e+00
3.137570127784940599e+00 -3.139916588533425923e+00
3.218020643881990495e+00 -3.115559918087680735e+00
3.298471159979039946e+00 -3.101743955271790476e+00
3.378921676076090286e+00 -3.099328047685429244e+00
3.459372192173139737e+00 -3.119956396797537224e+00
3.539822708270189189e+00 -3.140372422830050692e+00
3.620273224367239528e+00 -3.159973024943610653e+00
3.700723740464288980e+00 -3.163739083795514606e+00
3.781174256561339320e+00 -3.121779930781285906e+00
3.861624772658388771e+00 -3.089627400799972001e+00
3.942075288755438223e+00 -3.060187109609732836e+00
4.022525804852488562e+00 -3.066168816847987255e+00
4.102976320949538014e+00 -3.078213613777481150e+00
4.183426837046588354e+00 -3.086951583285359124e+00
4.263877353143637805e+00 -3.103233762092359793e+00
4.344327869240687257e+00 -3.129811091675390511e+00
4.424778385337737596e+00 -3.129992502005120247e+00
4.505228901434787048e+00 -3.116814223676161344e+00
4.585679417531836499e+00 -3.136114664771497029e+00
4.666129933628886839e+00 -3.155937099307899008e+00
4.746580449725936290e+00 -3.160962730734351744e+00
4.827030965822985742e+00 -3.160080888724178028e+00
4.907481481920036082e+00 -3.174215758559140621e+00
4.987931998017085533e+00 -3.180938066425025745e+00
5.068382514114135873e+00 -3.180304428361668378e+00
5.148833030211185324e+00 -3.157056382586886478e+00
5.229283546308234776e+00 -3.133553940281262662e+00
5.309734062405285115e+00 -3.143926351793179474e+00
5.390184578502334567e+00 -3.193679875922564637e+00
5.470635094599384018e+00 -3.215226086075042566e+00
5.551085610696433470e+00 -3.176552418764438723e+00
5.631536126793483810e+00 -3.140892050172003902e+00
5.711986642890533261e+00 -3.132937018383214589e+00
5.792437158987582713e+00 -3.140997931798274578e+00
5.872887675084633052e+00 -3.146248610784886157e+00
5.953338191181682504e+00 -3.133956097664614138e+00
6.033788707278731955e+00 -3.131086393688594427e+00
6.114239223375781407e+00 -3.156336417437947794e+00
6.194689739472831747e+00 -3.195377070490839078e+00
6.275140255569881198e+00 -3.199490276026205837e+00
6.355590771666931538e+00 -3.180867890690886046e+00
6.436041287763980989e+00 -3.180612900012213196e+00
6.516491803861030441e+00 -3.207163552703660159e+00
6.596942319958079892e+00 -3.223251868582698521e+00
6.677392836055131120e+00 -3.218719176914736302e+00
6.757843352152180572e+00 -3.215729975457364276e+00
6.838293868249230023e+00 -3.193203226367157033e+00
6.918744384346279475e+00 -3.184351834795947855e+00
6.999194900443328926e+00 -3.178005124713248808e+00
7.079645416540378378e+00 -3.180853465192234442e+00
7.160095932637429605e+00 -3.200163410996838209e+00
7.240546448734479057e+00 -3.234224439753094149e+00
7.320996964831528508e+00 -3.242714412538077351e+00
7.401447480928577960e+00 -3.239217496604471336e+00
7.481897997025627411e+00 -3.220950899130405443e+00
7.562348513122678639e+00 -3.225893298727264824e+00
7.642799029219728091e+00 -3.219113405829076680e+00
7.723249545316777542e+00 -3.211309117955670533e+00
7.803700061413826994e+00 -3.218369396670296645e+00
7.884150577510876445e+00 -3.240388251032899181e+00
7.964601093607927673e+00 -3.253953870975567320e+00
8.045051609704977125e+00 -3.261419238950085120e+00
8.125502125802025688e+00 -3.301711759839748961e+00
8.205952641899076028e+00 -3.291423433808204013e+00
8.286403157996124591e+00 -3.264388871222442035e+00
8.366853674093176707e+00 -3.253155531636422904e+00
8.447304190190225270e+00 -3.233182148918412047e+00
8.527754706287275610e+00 -3.213396741371077336e+00
8.608205222384324173e+00 -3.246664516141105405e+00
8.688655738481374513e+00 -3.269720322694174008e+00
8.769106254578423076e+00 -3.253921588038750645e+00
8.849556770675475192e+00 -3.273342314369302564e+00
8.930007286772523756e+00 -3.328071164002615934e+00
9.010457802869574095e+00 -3.336489067505874040e+00
9.090908318966622659e+00 -3.324931751287810489e+00
9.171358835063672998e+00 -3.304147083133806451e+00
9.251809351160723338e+00 -3.278934424060593322e+00
9.332259867257773678e+00 -3.272459441900227084e+00
9.412710383354822241e+00 -3.298344866308982937e+00
9.493160899451872581e+00 -3.332060617551795279e+00
9.573611415548921144e+00 -3.360350257526504958e+00
9.654061931645971484e+00 -3.361870995530750417e+00
9.734512447743021823e+00 -3.327000629473082061e+00
9.814962963840072163e+00 -3.302586262659919392e+00
9.895413479937120727e+00 -3.320294007663777247e+00
9.975863996034171066e+00 -3.331400858706068835e+00
1.005631451213121963e+01 -3.312953445285225840e+00
1.013676502822827175e+01 -3.305712939398211425e+00
1.021721554432532031e+01 -3.321194707937261015e+00
1.029766606042237065e+01 -3.329782468866804290e+00
