0.000000000000000000e+00 -1.549019599857431873e-01
8.045051609704977069e-02 -2.054528088458846824e-01
1.609010321940995414e-01 -6.388039117637398512e-01
2.413515482911492982e-01 -2.760266660190411336e+00
3.218020643881990828e-01 -3.421953874474403356e+00
4.022525804852488118e-01 -3.069287704383902859e+00
4.827030965822985964e-01 -3.055865036351336439e+00
5.631536126793483810e-01 -3.096563339901277079e+00
6.436041287763981655e-01 -3.061188983208668724e+00
7.240546448734478391e-01 -3.119940431979296047e+00
8.045051609704976237e-01 -3.130320954715280823e+00
8.849556770675472972e-01 -3.083899935154100991e+00
9.654061931645971928e-01 -3.144000438384073615e+00
1.045856709261647088e+00 -3.253110241417888293e+00
1.126307225358696762e+00 -3.315180792301879897e+00
1.206757741455746435e+00 -3.349415845371800593e+00
1.287208257552796331e+00 -3.331227390256220389e+00
1.367658773649846005e+00 -3.268540590464515283e+00
1.448109289746895678e+00 -3.196747296316669651e+00
1.528559805843945352e+00 -3.135242352682487965e+00
1.609010321940995247e+00 -3.091149853752682475e+00
1.689460838038045143e+00 -3.057909154860615875e+00
1.769911354135094594e+00 -3.047683135869456272e+00
1.850361870232144490e+00 -3.059190035126016838e+00
1.930812386329194386e+00 -3.073113298400489413e+00
2.011262902426244281e+00 -3.054004743722526616e+00
2.091713418523294177e+00 -3.035774443808838097e+00
2.172163934620343628e+00 -3.005626997521743338e+00
2.252614450717393524e+00 -3.025343935432429188e+00
2.333064966814443419e+00 -3.040940313006333717e+00
2.413515482911492871e+00 -3.045362024810414070e+00
2.493965999008542767e+00 -3.088745153951038436e+00
2.574416515105592662e+00 -3.143054905669882437e+00
2.654867031202642558e+00 -3.161876680365617531e+00
2.735317547299692009e+00 -3.130438139863652047e+00
2.815768063396741905e+00 -3.106990186865415726e+00
2.896218579493791356e+00 -3.133514292070115559e+00
2.976669095590841252e+00 -3.143564478592826728e+00
3.057119611687890703e+00 -3.138372934668513636e+00
3.137570127784940599e+00 -3.147073791039452395e+00
3.218020643881990495e+00 -3.186279712560429189e+00
3.298471159979039946e+00 -3.175312213868228817e+00
3.378921676076090286e+00 -3.125578595647297675e+00
3.459372192173139737e+00 -3.067352684795834783e+00
3.539822708270189189e+00 -3.043005437380732481e+00
3.620273224367239528e+00 -3.080927509134173015e+00
3.700723740464288980e+00 -3.104807833588061783e+00
3.781174256561339320e+00 -3.060589232153547723e+00
3.861624772658388771e+00 -3.024687150494599130e+00
3.942075288755438223e+00 -3.041897821807451052e+00
4.022525804852488562e+00 -3.093923354592420516e+00
4.102976320949538014e+00 -3.146009303837142834e+00
4.183426837046588354e+00 -3.155207247239103285e+00
4.263877353143637805e+00 -3.154415848818331813e+00
4.344327869240687257e+00 -3.153524527356357243e+00
4.424778385337737596e+00 -3.146040349323870888e+00
4.505228901434787048e+00 -3.120451297203450824e+00
4.585679417531836499e+00 -3.079717191422109757e+00
4.666129933628886839e+00 -3.064414334882258117e+00
4.746580449725936290e+00 -3.099567185757210908e+00
4.827030965822985742e+00 -3.159508079318936957e+00
4.907481481920036082e+00 -3.214604112862489593e+00
4.987931998017085533e+00 -3.233932061056135510e+00
5.068382514114135873e+00 -3.226609919875101262e+00
5.148833030211185324e+00 -3.187162414619176598e+00
5.229283546308234776e+00 -3.159459304805349866e+00
5.309734062405285115e+00 -3.151104898751769134e+00
5.390184578502334567e+00 -3.145486941324711072e+00
5.470635094599384018e+00 -3.138970997341862024e+00
5.551085610696433470e+00 -3.109666147415964144e+00
5.631536126793483810e+00 -3.077062045127262557e+00
5.711986642890533261e+00 -3.079173837719199280e+00
5.792437158987582713e+00 -3.095478772610405827e+00
5.872887675084633052e+00 -3.129777668626768872e+00
5.953338191181682504e+00 -3.150633052860963623e+00
6.033788707278731955e+00 -3.145494740133739420e+00
6.114239223375781407e+00 -3.115380706748374973e+00
6.194689739472831747e+00 -3.086872324193884243e+00
6.275140255569881198e+00 -3.069995143162982387e+00
6.355590771666931538e+00 -3.078379030215069978e+00
6.436041287763980989e+00 -3.117925407211770139e+00
6.516491803861030441e+00 -3.140025524129729462e+00
6.596942319958079892e+00 -3.131667755484600413e+00
6.677392836055131120e+00 -3.136134057237393247e+00
6.757843352152180572e+00 -3.152469530000439502e+00
6.838293868249230023e+00 -3.148579044385329873e+00
6.918744384346279475e+00 -3.141590158456087689e+00
6.999194900443328926e+00 -3.174664779720063112e+00
7.079645416540378378e+00 -3.201701093978171819e+00
7.160095932637429605e+00 -3.221156533354188500e+00
7.240546448734479057e+00 -3.242716378113448261e+00
7.320996964831528508e+00 -3.228422942500986270e+00
7.401447480928577960e+00 -3.215438700819479578e+00
7.481897997025627411e+00 -3.193281387481003541e+00
7.562348513122678639e+00 -3.165017738009929360e+00
7.642799029219728091e+00 -3.150670619181187515e+00
7.723249545316777542e+00 -3.183706453038961826e+00
7.803700061413826994e+00 -3.210420649949068395e+00
7.884150577510876445e+00 -3.206960663844463877e+00
7.964601093607927673e+00 -3.207447664720233682e+00
8.045051609704977125e+00 -3.219791496906734274e+00
8.125502125802025688e+00 -3.222615874494072941e+00
8.205952641899076028e+00 -3.228110844571607796e+00
8.286403157996124591e+00 -3.230995143743100151e+00
8.366853674093176707e+00 -3.248086570834880060e+00
8.447304190190225270e+00 -3.259827252910354467e+00
8.527754706287275610e+00 -3.259912096401234471e+00
8.608205222384324173e+00 -3.260526212208831431e+00
8.688655738481374513e+00 -3.255388095234585499e+00
8.769106254578423076e+00 -3.237273832593233980e+00
8.849556770675475192e+00 -3.237282963651151757e+00
8.930007286772523756e+00 -3.252288534975650069e+00
9.010457802869574095e+00 -3.260011829826329421e+00
9.090908318966622659e+00 -3.263797405099451598e+00
9.171358835063672998e+00 -3.263859750557272843e+00
9.251809351160723338e+00 -3.260392303827474247e+00
9.332259867257773678e+00 -3.277109612439042419e+00
9.412710383354822241e+00 -3.278521089282612433e+00
9.493160899451872581e+00 -3.253132618013045985e+00
9.573611415548921144e+00 -3.257070644120756864e+00
9.654061931645971484e+00 -3.283683313601890141e+00
9.734512447743021823e+00 -3.296990053630363349e+00
9.814962963840072163e+00 -3.301728220950436388e+00
9.895413479937120727e+00 -3.269679302105115148e+00
9.975863996034171066e+00 -3.268300764479883824e+00
1.005631451213121963e+01 -3.301750059827583073e+00
1.013676502822827175e+01 -3.315268482101540570e+00
1.021721554432532031e+01 -3.295109601078533235e+00
1.029766606042237065e+01 -3.294685179726867919e+00
