0.000000000000000000e+00 -1.549019599857431873e-01
8.045051609704977069e-02 -2.124172395284304737e-01
1.609010321940995414e-01 -6.538382278464509589e-01
2.413515482911492982e-01 -2.852808568948840939e+00
3.218020643881990828e-01 -2.978251537758109802e+00
4.022525804852488118e-01 -2.799171177224756057e+00
4.827030965822985964e-01 -2.910894052676514132e+00
5.631536126793483810e-01 -3.026129275665138785e+00
6.436041287763981655e-01 -3.143704018583956206e+00
7.240546448734478391e-01 -3.190732284165454402e+00
8.045051609704976237e-01 -3.172807903376031469e+00
8.849556770675472972e-01 -3.224473248551860571e+00
9.654061931645971928e-01 -3.242990511015435118e+00
1.045856709261647088e+00 -3.218853415852511279e+00
1.126307225358696762e+00 -3.227760422149833719e+00
1.206757741455746435e+00 -3.263835956651175429e+00
1.287208257552796331e+00 -3.274589212157245299e+00
1.367658773649846005e+00 -3.367194967921809834e+00
1.448109289746895678e+00 -3.390061921275820289e+00
1.528559805843945352e+00 -3.248701296162131325e+00
1.609010321940995247e+00 -3.144747675673833953e+00
1.689460838038045143e+00 -3.121071921205693656e+00
1.769911354135094594e+00 -3.125169523413555250e+00
1.850361870232144490e+00 -3.110966493134915023e+00
1.930812386329194386e+00 -3.109827484511944906e+00
2.011262902426244281e+00 -3.105009790513663326e+00
2.091713418523294177e+00 -3.085297786608075299e+00
2.172163934620343628e+00 -3.100334852827192123e+00
2.252614450717393524e+00 -3.141411750961004667e+00
2.333064966814443419e+00 -3.183220559769161184e+00
2.413515482911492871e+00 -3.169576077700543060e+00
2.493965999008542767e+00 -3.103262039452234333e+00
2.574416515105592662e+00 -3.059376221745869540e+00
2.654867031202642558e+00 -3.089881942904614487e+00
2.735317547299692009e+00 -3.148685991097994741e+00
2.815768063396741905e+00 -3.170765690892421329e+00
2.896218579493791356e+00 -3.137196623150348529e+00
2.976669095590841252e+00 -3.104739557290432828e+00
3.057119611687890703e+00 -3.106592859516505989e+00
3.137570127784940599e+00 -3.105372457784585816e+00
3.218020643881990495e+00 -3.095637930284799832e+00
3.298471159979039946e+00 -3.082186732124168937e+00
3.378921676076090286e+00 -3.089238968363782423e+00
3.459372192173139737e+00 -3.079409365240280749e+00
3.539822708270189189e+00 -3.058770137227228236e+00
3.620273224367239528e+00 -3.044670325130223620e+00
3.700723740464288980e+00 -3.057033192781078323e+00
3.781174256561339320e+00 -3.096158437259786123e+00
3.861624772658388771e+00 -3.124818045405367783e+00
3.942075288755438223e+00 -3.118203208780822244e+00
4.022525804852488562e+00 -3.100139481274167164e+00
4.102976320949538014e+00 -3.112901472744356912e+00
4.183426837046588354e+00 -3.122247561245885983e+00
4.263877353143637805e+00 -3.128959289204812588e+00
4.344327869240687257e+00 -3.137637055833318644e+00
4.424778385337737596e+00 -3.157414203475240377e+00
4.505228901434787048e+00 -3.141899153821993362e+00
4.585679417531836499e+00 -3.141796820196470996e+00
4.666129933628886839e+00 -3.127703532229558991e+00
4.746580449725936290e+00 -3.112763946695965789e+00
4.827030965822985742e+00 -3.099428071082889868e+00
4.907481481920036082e+00 -3.099849866910262985e+00
4.987931998017085533e+00 -3.116955238444271359e+00
5.068382514114135873e+00 -3.137779283226420635e+00
5.148833030211185324e+00 -3.163380007212022615e+00
5.229283546308234776e+00 -3.155583508461584863e+00
5.309734062405285115e+00 -3.139740798277121936e+00
5.390184578502334567e+00 -3.135822024995225110e+00
5.470635094599384018e+00 -3.119783398260732810e+00
5.551085610696433470e+00 -3.110089950427149752e+00
5.631536126793483810e+00 -3.124743016862213008e+00
5.711986642890533261e+00 -3.153922162004770602e+00
5.792437158987582713e+00 -3.150283064221231388e+00
5.872887675084633052e+00 -3.154943442189098057e+00
5.953338191181682504e+00 -3.182245191630116210e+00
6.033788707278731955e+00 -3.207523039864634828e+00
6.114239223375781407e+00 -3.201105052307444243e+00
6.194689739472831747e+00 -3.163015132531045825e+00
6.275140255569881198e+00 -3.151182685747758061e+00
6.355590771666931538e+00 -3.134658617196567576e+00
6.436041287763980989e+00 -3.144546225390942418e+00
6.516491803861030441e+00 -3.184629177639661357e+00
6.596942319958079892e+00 -3.200063652892505051e+00
6.677392836055131120e+00 -3.173816166625131441e+00
6.757843352152180572e+00 -3.131043514591880239e+00
6.838293868249230023e+00 -3.118014721531020772e+00
6.918744384346279475e+00 -3.128473627371681776e+00
6.999194900443328926e+00 -3.163411355651315038e+00
7.079645416540378378e+00 -3.185123834674382426e+00
7.160095932637429605e+00 -3.212195196431694377e+00
7.240546448734479057e+00 -3.230129113647390859e+00
7.320996964831528508e+00 -3.220455208800984792e+00
7.401447480928577960e+00 -3.205051791223835878e+00
7.481897997025627411e+00 -3.198155565915618670e+00
7.562348513122678639e+00 -3.175901231998310870e+00
7.642799029219728091e+00 -3.166634215554345655e+00
7.723249545316777542e+00 -3.160617636204053227e+00
7.803700061413826994e+00 -3.161273093691785441e+00
7.884150577510876445e+00 -3.170614345603827378e+00
7.964601093607927673e+00 -3.191244659668435180e+00
8.045051609704977125e+00 -3.222228393976996674e+00
8.125502125802025688e+00 -3.242475483311991091e+00
8.205952641899076028e+00 -3.257247150535766078e+00
8.286403157996124591e+00 -3.285027910449429989e+00
8.366853674093176707e+00 -3.278338208131035714e+00
8.447304190190225270e+00 -3.245720789365464487e+00
8.527754706287275610e+00 -3.212160092577468706e+00
8.608205222384324173e+00 -3.216308092808596086e+00
8.688655738481374513e+00 -3.233525087690658939e+00
8.769106254578423076e+00 -3.275252747052241453e+00
8.849556770675475192e+00 -3.312581937243277430e+00
8.930007286772523756e+00 -3.317221523304415332e+00
9.010457802869574095e+00 -3.305167681824624726e+00
9.090908318966622659e+00 -3.297651142652127110e+00
9.171358835063672998e+00 -3.281910009972024866e+00
9.251809351160723338e+00 -3.266771063624776428e+00
9.332259867257773678e+00 -3.244016925428180542e+00
9.412710383354822241e+00 -3.260437579721208401e+00
9.493160899451872581e+00 -3.297483776529893440e+00
9.573611415548921144e+00 -3.307237751944256399e+00
9.654061931645971484e+00 -3.297224080653736955e+00
9.734512447743021823e+00 -3.303109084438777820e+00
9.814962963840072163e+00 -3.314494128588670652e+00
9.895413479937120727e+00 -3.295720194285899574e+00
9.975863996034171066e+00 -3.287397218503193663e+00
1.005631451213121963e+01 -3.290882731332361200e+00
1.013676502822827175e+01 -3.311760416777637328e+00
1.021721554432532031e+01 -3.330190496713392623e+00
1.029766606042237065e+01 -3.332384522699833429e+00
