0.000000000000000000e+00 -1.549019599857431873e-01
8.045051609704977069e-02 -1.999118173927644238e-01
1.609010321940995414e-01 -5.760844503892603718e-01
2.413515482911492982e-01 -2.444053602649080226e+00
3.218020643881990828e-01 -3.368598907191577396e+00
4.022525804852488118e-01 -2.958752633258237896e+00
4.827030965822985964e-01 -2.972139440441138980e+00
5.631536126793483810e-01 -3.059245402452384521e+00
6.436041287763981655e-01 -3.107916064936127487e+00
7.240546448734478391e-01 -3.136066815455051948e+00
8.045051609704976237e-01 -3.172227001234879662e+00
8.849556770675472972e-01 -3.164470618879394959e+00
9.654061931645971928e-01 -3.115903525407686114e+00
1.045856709261647088e+00 -3.124437542523875955e+00
1.126307225358696762e+00 -3.225945700707759656e+00
1.206757741455746435e+00 -3.336527804241007367e+00
1.287208257552796331e+00 -3.396041377842720976e+00
1.367658773649846005e+00 -3.313396989749531674e+00
1.448109289746895678e+00 -3.215946984286496058e+00
1.528559805843945352e+00 -3.205973495738081880e+00
1.609010321940995247e+00 -3.257849795867549858e+00
1.689460838038045143e+00 -3.293262782989779147e+00
1.769911354135094594e+00 -3.272406850546336621e+00
1.850361870232144490e+00 -3.226237542409835513e+00
1.930812386329194386e+00 -3.135498097322109601e+00
2.011262902426244281e+00 -3.055480436517968634e+00
2.091713418523294177e+00 -3.030041622048755823e+00
2.172163934620343628e+00 -3.037364728133828518e+00
2.252614450717393524e+00 -3.046593382622855284e+00
2.333064966814443419e+00 -3.047503113200195290e+00
2.413515482911492871e+00 -2.988128682149658211e+00
2.493965999008542767e+00 -2.980227474075955119e+00
2.574416515105592662e+00 -3.021089231718261381e+00
2.654867031202642558e+00 -3.065422756935350268e+00
2.735317547299692009e+00 -3.096548326117691818e+00
2.815768063396741905e+00 -3.147450575445726706e+00
2.896218579493791356e+00 -3.154787318861372203e+00
2.976669095590841252e+00 -3.145716765711416230e+00
3.057119611687890703e+00 -3.161728105241968567e+00
3.137570127784940599e+00 -3.175561965471639603e+00
3.218020643881990495e+00 -3.174823375461614638e+00
3.298471159979039946e+00 -3.159958368128461981e+00
3.378921676076090286e+00 -3.135838254272207859e+00
3.459372192173139737e+00 -3.112865745439650667e+00
3.539822708270189189e+00 -3.080529676951440088e+00
3.620273224367239528e+00 -3.042505897947650695e+00
3.700723740464288980e+00 -3.022477785256420191e+00
3.781174256561339320e+00 -3.047187347841289640e+00
3.861624772658388771e+00 -3.073222058955451530e+00
3.942075288755438223e+00 -3.091047622311622778e+00
4.022525804852488562e+00 -3.069113823086212278e+00
4.102976320949538014e+00 -3.081072616756040272e+00
4.183426837046588354e+00 -3.113662534560487583e+00
4.263877353143637805e+00 -3.119199635280356375e+00
4.344327869240687257e+00 -3.118558178256481739e+00
4.424778385337737596e+00 -3.113389002280385842e+00
4.505228901434787048e+00 -3.116960449377116582e+00
4.585679417531836499e+00 -3.147363556705118359e+00
4.666129933628886839e+00 -3.189779113537635880e+00
4.746580449725936290e+00 -3.189033276633887581e+00
4.827030965822985742e+00 -3.149555753698818350e+00
4.907481481920036082e+00 -3.124585321315128894e+00
4.987931998017085533e+00 -3.104541221340352486e+00
5.068382514114135873e+00 -3.085934255708166596e+00
5.148833030211185324e+00 -3.062353439365792074e+00
5.229283546308234776e+00 -3.030862760221531893e+00
5.309734062405285115e+00 -3.029887311698427066e+00
5.390184578502334567e+00 -3.055511221792817533e+00
5.470635094599384018e+00 -3.095523691383657017e+00
5.551085610696433470e+00 -3.107260728054376031e+00
5.631536126793483810e+00 -3.082963442230512108e+00
5.711986642890533261e+00 -3.066650956700516684e+00
5.792437158987582713e+00 -3.084494267654806610e+00
5.872887675084633052e+00 -3.107240145811938969e+00
5.953338191181682504e+00 -3.140603686611335821e+00
6.033788707278731955e+00 -3.161253623195798390e+00
6.114239223375781407e+00 -3.174488885480324374e+00
6.194689739472831747e+00 -3.184079217980627874e+00
6.275140255569881198e+00 -3.167790287013163564e+00
6.355590771666931538e+00 -3.147054365405792087e+00
6.436041287763980989e+00 -3.167701977159417481e+00
6.516491803861030441e+00 -3.186534477750576855e+00
6.596942319958079892e+00 -3.155103445652943872e+00
6.677392836055131120e+00 -3.116800907067841742e+00
6.757843352152180572e+00 -3.125297771643877454e+00
6.838293868249230023e+00 -3.178037897304653914e+00
6.918744384346279475e+00 -3.216086157426431225e+00
6.999194900443328926e+00 -3.226827823034796427e+00
7.079645416540378378e+00 -3.252445084799012953e+00
7.160095932637429605e+00 -3.284880151477726606e+00
7.240546448734479057e+00 -3.265924641141860985e+00
7.320996964831528508e+00 -3.217637304464807002e+00
7.401447480928577960e+00 -3.180850461038037480e+00
7.481897997025627411e+00 -3.184648848544240796e+00
7.562348513122678639e+00 -3.181450327062022687e+00
7.642799029219728091e+00 -3.166174498577631891e+00
7.723249545316777542e+00 -3.165200063976670197e+00
7.803700061413826994e+00 -3.161021960838273692e+00
7.884150577510876445e+00 -3.164788913056730379e+00
7.964601093607927673e+00 -3.171147047500404881e+00
8.045051609704977125e+00 -3.176715151903446444e+00
8.125502125802025688e+00 -3.175192805887756098e+00
8.205952641899076028e+00 -3.169207779297200211e+00
8.286403157996124591e+00 -3.173702423637638326e+00
8.366853674093176707e+00 -3.202516493268077191e+00
8.447304190190225270e+00 -3.221062739873915337e+00
8.527754706287275610e+00 -3.211725051192233060e+00
8.608205222384324173e+00 -3.198855346018875778e+00
8.688655738481374513e+00 -3.193514491123075949e+00
8.769106254578423076e+00 -3.207836512420521480e+00
8.849556770675475192e+00 -3.198617364542795105e+00
8.930007286772523756e+00 -3.181925702326040994e+00
9.010457802869574095e+00 -3.181933586108022016e+00
9.090908318966622659e+00 -3.221023745001735605e+00
9.171358835063672998e+00 -3.266631560685103519e+00
9.251809351160723338e+00 -3.284701650381259608e+00
9.332259867257773678e+00 -3.279580939847575927e+00
9.412710383354822241e+00 -3.257994935517962265e+00
9.493160899451872581e+00 -3.241407256826132510e+00
9.573611415548921144e+00 -3.223853750319942701e+00
9.654061931645971484e+00 -3.249264792512490896e+00
9.734512447743021823e+00 -3.316995425841591683e+00
9.814962963840072163e+00 -3.365106233758276666e+00
9.895413479937120727e+00 -3.356994962112448189e+00
9.975863996034171066e+00 -3.341721133468694926e+00
1.005631451213121963e+01 -3.320702622606607424e+00
1.013676502822827175e+01 -3.307971128041546471e+00
1.021721554432532031e+01 -3.290142408408304409e+00
1.029766606042237065e+01 -3.275605325976604920e+00
