0.000000000000000000e+00 -1.549019599857431873e-01
8.045051609704977069e-02 -2.102533046896299940e-01
1.609010321940995414e-01 -6.551161794875913769e-01
2.413515482911492982e-01 -2.859822831690179701e+00
3.218020643881990828e-01 -3.093093604392941121e+00
4.022525804852488118e-01 -2.933811709539300594e+00
4.827030965822985964e-01 -2.921346975960111170e+00
5.631536126793483810e-01 -2.974329118278260076e+00
6.436041287763981655e-01 -3.006831498083553988e+00
7.240546448734478391e-01 -3.042908374687501638e+00
8.045051609704976237e-01 -3.136151815975333879e+00
8.849556770675472972e-01 -3.279333770808359638e+00
9.654061931645971928e-01 -3.353196222806317461e+00
1.045856709261647088e+00 -3.330155435143368869e+00
1.126307225358696762e+00 -3.270936997284550785e+00
1.206757741455746435e+00 -3.307578487457043970e+00
1.287208257552796331e+00 -3.352216181664038341e+00
1.367658773649846005e+00 -3.328774286704965668e+00
1.448109289746895678e+00 -3.250325964651068045e+00
1.528559805843945352e+00 -3.187267241750835201e+00
1.609010321940995247e+00 -3.139480329241848722e+00
1.689460838038045143e+00 -3.082555257068310350e+00
1.769911354135094594e+00 -3.020792267765421535e+00
1.850361870232144490e+00 -3.010255215447753763e+00
1.930812386329194386e+00 -3.065730950917345154e+00
2.011262902426244281e+00 -3.121939138245476197e+00
2.091713418523294177e+00 -3.094912306384624223e+00
2.172163934620343628e+00 -3.045282015656724628e+00
2.252614450717393524e+00 -3.011472116617047057e+00
2.333064966814443419e+00 -3.043403119455684092e+00
2.413515482911492871e+00 -3.079587539495314719e+00
2.493965999008542767e+00 -3.097240564780050498e+00
2.574416515105592662e+00 -3.118372212652778419e+00
2.654867031202642558e+00 -3.094198122441247811e+00
2.735317547299692009e+00 -3.057834315694942795e+00
2.815768063396741905e+00 -3.075480930862975804e+00
2.896218579493791356e+00 -3.123215149625763409e+00
2.976669095590841252e+00 -3.123965165278727252e+00
3.057119611687890703e+00 -3.099366722798342799e+00
3.137570127784940599e+00 -3.064096641668155208e+00
3.218020643881990495e+00 -3.010739102790930932e+00
3.298471159979039946e+00 -3.022711103511563469e+00
3.378921676076090286e+00 -3.026221165486551623e+00
3.459372192173139737e+00 -3.013973530559588276e+00
3.539822708270189189e+00 -3.055132367356097056e+00
3.620273224367239528e+00 -3.089934687346979292e+00
3.700723740464288980e+00 -3.089012112171193092e+00
3.781174256561339320e+00 -3.097011327511624668e+00
3.861624772658388771e+00 -3.130269192192493222e+00
3.942075288755438223e+00 -3.177715811757787279e+00
4.022525804852488562e+00 -3.154407154661459600e+00
4.102976320949538014e+00 -3.102400642526914609e+00
4.183426837046588354e+00 -3.072824990801130696e+00
4.263877353143637805e+00 -3.073468517545311585e+00
4.344327869240687257e+00 -3.121451967834132812e+00
4.424778385337737596e+00 -3.175976266305307938e+00
4.505228901434787048e+00 -3.212178333525828489e+00
4.585679417531836499e+00 -3.214417718118819156e+00
4.666129933628886839e+00 -3.191117554934150835e+00
4.746580449725936290e+00 -3.164502349866147313e+00
4.827030965822985742e+00 -3.140648049966584754e+00
4.907481481920036082e+00 -3.112481781135405523e+00
4.987931998017085533e+00 -3.102148478239156848e+00
5.068382514114135873e+00 -3.109630828454455376e+00
5.148833030211185324e+00 -3.118607959991269052e+00
5.229283546308234776e+00 -3.128429458417297582e+00
5.309734062405285115e+00 -3.157352916574616142e+00
5.390184578502334567e+00 -3.151199728652299914e+00
5.470635094599384018e+00 -3.144451693856815222e+00
5.551085610696433470e+00 -3.140292252097687253e+00
5.631536126793483810e+00 -3.153582304010984050e+00
5.711986642890533261e+00 -3.160298359575454796e+00
5.792437158987582713e+00 -3.163235029291484146e+00
5.872887675084633052e+00 -3.161960738864183718e+00
5.953338191181682504e+00 -3.187307568496859922e+00
6.033788707278731955e+00 -3.184815162101754193e+00
6.114239223375781407e+00 -3.132366520207598093e+00
6.194689739472831747e+00 -3.096700814925736012e+00
6.275140255569881198e+00 -3.110801835605794707e+00
6.355590771666931538e+00 -3.156629801899833776e+00
6.436041287763980989e+00 -3.185396259224116289e+00
6.516491803861030441e+00 -3.188699216574860440e+00
6.596942319958079892e+00 -3.156312128796799676e+00
6.677392836055131120e+00 -3.151730514663392935e+00
6.757843352152180572e+00 -3.172901439717400685e+00
6.838293868249230023e+00 -3.178182768720626328e+00
6.918744384346279475e+00 -3.168985315826335469e+00
6.999194900443328926e+00 -3.159093577375706285e+00
7.079645416540378378e+00 -3.151945613052801853e+00
7.160095932637429605e+00 -3.157391570640450951e+00
7.240546448734479057e+00 -3.189731276940753535e+00
7.320996964831528508e+00 -3.208493485520156341e+00
7.401447480928577960e+00 -3.204877475929706065e+00
7.481897997025627411e+00 -3.197451918809432136e+00
7.562348513122678639e+00 -3.199616756102838355e+00
7.642799029219728091e+00 -3.190892167709732163e+00
7.723249545316777542e+00 -3.184963177283038682e+00
7.803700061413826994e+00 -3.182928000082603237e+00
7.884150577510876445e+00 -3.181903055065103292e+00
7.964601093607927673e+00 -3.195807608022179558e+00
8.045051609704977125e+00 -3.208578819601831444e+00
8.125502125802025688e+00 -3.205128943765608529e+00
8.205952641899076028e+00 -3.201741657444203248e+00
8.286403157996124591e+00 -3.191650599660419640e+00
8.366853674093176707e+00 -3.196504973961789453e+00
8.447304190190225270e+00 -3.218412465715615678e+00
8.527754706287275610e+00 -3.221226363191669773e+00
8.608205222384324173e+00 -3.215794001690586601e+00
8.688655738481374513e+00 -3.232831303956862357e+00
8.769106254578423076e+00 -3.287074245659224125e+00
8.849556770675475192e+00 -3.312808849122188093e+00
8.930007286772523756e+00 -3.301839852958194044e+00
9.010457802869574095e+00 -3.297958600651629713e+00
9.090908318966622659e+00 -3.283116573568359620e+00
9.171358835063672998e+00 -3.272165169204013235e+00
9.251809351160723338e+00 -3.289251337979523182e+00
9.332259867257773678e+00 -3.295590241218451233e+00
9.412710383354822241e+00 -3.285879923684833503e+00
9.493160899451872581e+00 -3.299882876791833564e+00
9.573611415548921144e+00 -3.321098200059342531e+00
9.654061931645971484e+00 -3.326393282078551117e+00
9.734512447743021823e+00 -3.340439222884323378e+00
9.814962963840072163e+00 -3.330570265663043372e+00
9.895413479937120727e+00 -3.321273417652680582e+00
9.975863996034171066e+00 -3.326506093315457324e+00
1.005631451213121963e+01 -3.339504988312361533e+00
1.013676502822827175e+01 -3.336369568598419377e+00
1.021721554432532031e+01 -3.316473765836245757e+00
1.029766606042237065e+01 -3.300989636404903838e+00
