0.000000000000000000e+00 -1.549019599857431873e-01
8.045051609704977069e-02 -1.872174307426912598e-01
1.609010321940995414e-01 -5.067939065675395316e-01
2.413515482911492982e-01 -1.910608045481425599e+00
3.218020643881990828e-01 -3.087301144906668959e+00
4.022525804852488118e-01 -3.008226736920359468e+00
4.827030965822985964e-01 -2.939682682438951034e+00
5.631536126793483810e-01 -2.994389739596580391e+00
6.436041287763981655e-01 -3.101455751453234377e+00
7.240546448734478391e-01 -3.127916336886745086e+00
8.045051609704976237e-01 -3.137815913790206857e+00
8.849556770675472972e-01 -3.192271045860689771e+00
9.654061931645971928e-01 -3.246442515448536792e+00
1.045856709261647088e+00 -3.257924987490502300e+00
1.126307225358696762e+00 -3.255615800579340302e+00
1.206757741455746435e+00 -3.269283946032242927e+00
1.287208257552796331e+00 -3.287418702707552765e+00
1.367658773649846005e+00 -3.287053519200972218e+00
1.448109289746895678e+00 -3.307738312506937284e+00
1.528559805843945352e+00 -3.272964574607292843e+00
1.609010321940995247e+00 -3.187603952445535072e+00
1.689460838038045143e+00 -3.135789427413528951e+00
1.769911354135094594e+00 -3.108458476630554745e+00
1.850361870232144490e+00 -3.081335473163682170e+00
1.930812386329194386e+00 -3.045927892052996189e+00
2.011262902426244281e+00 -3.028853345908626871e+00
2.091713418523294177e+00 -3.002742977271262603e+00
2.172163934620343628e+00 -3.000374171796965417e+00
2.252614450717393524e+00 -3.056950531965578755e+00
2.333064966814443419e+00 -3.112297529864943790e+00
2.413515482911492871e+00 -3.145971439058793173e+00
2.493965999008542767e+00 -3.147282038517231317e+00
2.574416515105592662e+00 -3.133552968271253292e+00
2.654867031202642558e+00 -3.112155958951481782e+00
2.735317547299692009e+00 -3.065010208151437876e+00
2.815768063396741905e+00 -3.038695503322130342e+00
2.896218579493791356e+00 -3.060502053830059133e+00
2.976669095590841252e+00 -3.080068444285490870e+00
3.057119611687890703e+00 -3.067035740877773531e+00
3.137570127784940599e+00 -3.060644734966437408e+00
3.218020643881990495e+00 -3.084130906627206681e+00
3.298471159979039946e+00 -3.134617600236107915e+00
3.378921676076090286e+00 -3.145656669300549435e+00
3.459372192173139737e+00 -3.126977073552109410e+00
3.539822708270189189e+00 -3.108797245689193023e+00
3.620273224367239528e+00 -3.088356191315916988e+00
3.700723740464288980e+00 -3.090402307408099514e+00
3.781174256561339320e+00 -3.136103699446174176e+00
3.861624772658388771e+00 -3.135634592546253874e+00
3.942075288755438223e+00 -3.117795039233413057e+00
4.022525804852488562e+00 -3.142494279350777298e+00
4.102976320949538014e+00 -3.182889324485010718e+00
4.183426837046588354e+00 -3.161084797238381316e+00
4.263877353143637805e+00 -3.141042590586644589e+00
4.344327869240687257e+00 -3.154523896699046315e+00
4.424778385337737596e+00 -3.173914609248804641e+00
4.505228901434787048e+00 -3.186497132275731836e+00
4.585679417531836499e+00 -3.190821412854157213e+00
4.666129933628886839e+00 -3.182450014526357673e+00
4.746580449725936290e+00 -3.179241066425397833e+00
4.827030965822985742e+00 -3.167056787211640856e+00
4.907481481920036082e+00 -3.117579746183197553e+00
4.987931998017085533e+00 -3.095793849756955041e+00
5.068382514114135873e+00 -3.115239652632403544e+00
5.148833030211185324e+00 -3.164008869640651866e+00
5.229283546308234776e+00 -3.210498082176859391e+00
5.309734062405285115e+00 -3.229029275160626433e+00
5.390184578502334567e+00 -3.221630694369381320e+00
5.470635094599384018e+00 -3.211843569352775152e+00
5.551085610696433470e+00 -3.196420569287930835e+00
5.631536126793483810e+00 -3.203018937647479802e+00
5.711986642890533261e+00 -3.244826773604366110e+00
5.792437158987582713e+00 -3.259745135390411441e+00
5.872887675084633052e+00 -3.250663933812669271e+00
5.953338191181682504e+00 -3.218846832516866652e+00
6.033788707278731955e+00 -3.204559827321752596e+00
6.114239223375781407e+00 -3.185446734051307960e+00
6.194689739472831747e+00 -3.150997900001301755e+00
6.275140255569881198e+00 -3.127969598220697200e+00
6.355590771666931538e+00 -3.138714431800126103e+00
6.436041287763980989e+00 -3.155980707653488704e+00
6.516491803861030441e+00 -3.173866316650964858e+00
6.596942319958079892e+00 -3.185659894870147113e+00
6.677392836055131120e+00 -3.210816182434554911e+00
6.757843352152180572e+00 -3.224225675659001311e+00
6.838293868249230023e+00 -3.193513787594901121e+00
6.918744384346279475e+00 -3.147583143051669641e+00
6.999194900443328926e+00 -3.130919392391034783e+00
7.079645416540378378e+00 -3.162051087246226189e+00
7.160095932637429605e+00 -3.218170517347902049e+00
7.240546448734479057e+00 -3.247920915862625435e+00
7.320996964831528508e+00 -3.248664487130959788e+00
7.401447480928577960e+00 -3.239746356352616541e+00
7.481897997025627411e+00 -3.212849158320967291e+00
7.562348513122678639e+00 -3.192798998942228739e+00
7.642799029219728091e+00 -3.186602383523723603e+00
7.723249545316777542e+00 -3.201413078357834063e+00
7.803700061413826994e+00 -3.186662613138794509e+00
7.884150577510876445e+00 -3.170153795573709576e+00
7.964601093607927673e+00 -3.158009375316225942e+00
8.045051609704977125e+00 -3.168600271519721456e+00
8.125502125802025688e+00 -3.169350543596145986e+00
8.205952641899076028e+00 -3.184994901205746576e+00
8.286403157996124591e+00 -3.217316326437934748e+00
8.366853674093176707e+00 -3.252277395359743029e+00
8.447304190190225270e+00 -3.262448406501390785e+00
8.527754706287275610e+00 -3.255733272740840789e+00
8.608205222384324173e+00 -3.249371151724239848e+00
8.688655738481374513e+00 -3.230434553822323807e+00
8.769106254578423076e+00 -3.231263734352452843e+00
8.849556770675475192e+00 -3.247851102764889752e+00
8.930007286772523756e+00 -3.255895039018871007e+00
9.010457802869574095e+00 -3.237195557008119007e+00
9.090908318966622659e+00 -3.229496896771431036e+00
9.171358835063672998e+00 -3.229988443718645463e+00
9.251809351160723338e+00 -3.245452070645735265e+00
9.332259867257773678e+00 -3.281992056615844255e+00
9.412710383354822241e+00 -3.297106488188386475e+00
9.493160899451872581e+00 -3.280223711728408542e+00
9.573611415548921144e+00 -3.261747205070470113e+00
9.654061931645971484e+00 -3.285312351210089687e+00
9.734512447743021823e+00 -3.298309049103062662e+00
9.814962963840072163e+00 -3.280590448043211538e+00
9.895413479937120727e+00 -3.255807169070768836e+00
9.975863996034171066e+00 -3.265396603428995626e+00
1.005631451213121963e+01 -3.292156176512091914e+00
1.013676502822827175e+01 -3.303187817975040907e+00
1.021721554432532031e+01 -3.295624354683750479e+00
1.029766606042237065e+01 -3.300459721309962902e+00
