0.000000000000000000e+00 -1.549019599857431873e-01
8.045051609704977069e-02 -1.973157871131971108e-01
1.609010321940995414e-01 -5.990910419131523224e-01
2.413515482911492982e-01 -2.576330803995589225e+00
3.218020643881990828e-01 -3.320574691913557253e+00
4.022525804852488118e-01 -2.790053468302694739e+00
4.827030965822985964e-01 -2.791321584225446628e+00
5.631536126793483810e-01 -2.950928791139508345e+00
6.436041287763981655e-01 -3.060559455058599276e+00
7.240546448734478391e-01 -3.076990562252826855e+00
8.045051609704976237e-01 -3.144373989914957868e+00
8.849556770675472972e-01 -3.194278886971934295e+00
9.654061931645971928e-01 -3.244460146127550182e+00
1.045856709261647088e+00 -3.290975782026246854e+00
1.126307225358696762e+00 -3.256118806867529081e+00
1.206757741455746435e+00 -3.187879931538386558e+00
1.287208257552796331e+00 -3.153336958135466883e+00
1.367658773649846005e+00 -3.138789686483300034e+00
1.448109289746895678e+00 -3.174876909340429432e+00
1.528559805843945352e+00 -3.140477597212358862e+00
1.609010321940995247e+00 -3.082107889383451038e+00
1.689460838038045143e+00 -3.097780131441766560e+00
1.769911354135094594e+00 -3.164543339868019167e+00
1.850361870232144490e+00 -3.158783939217463477e+00
1.930812386329194386e+00 -3.097883577054485027e+00
2.011262902426244281e+00 -3.106137506315577834e+00
2.091713418523294177e+00 -3.116822431527226822e+00
2.172163934620343628e+00 -3.148465069422444973e+00
2.252614450717393524e+00 -3.173687489687342378e+00
2.333064966814443419e+00 -3.204001898686696492e+00
2.413515482911492871e+00 -3.189105032781149873e+00
2.493965999008542767e+00 -3.111673151556908490e+00
2.574416515105592662e+00 -3.057014666811207260e+00
2.654867031202642558e+00 -3.086100417475848623e+00
2.735317547299692009e+00 -3.127843778745202918e+00
2.815768063396741905e+00 -3.129634371483179134e+00
2.896218579493791356e+00 -3.118420050980808433e+00
2.976669095590841252e+00 -3.132466162458574566e+00
3.057119611687890703e+00 -3.126237084789594611e+00
3.137570127784940599e+00 -3.120900288714223425e+00
3.218020643881990495e+00 -3.129470339755419772e+00
3.298471159979039946e+00 -3.154254194245196707e+00
3.378921676076090286e+00 -3.136369271904792644e+00
3.459372192173139737e+00 -3.104409549134825586e+00
3.539822708270189189e+00 -3.116379530067564740e+00
3.620273224367239528e+00 -3.133207876338177211e+00
3.700723740464288980e+00 -3.124232784005809282e+00
3.781174256561339320e+00 -3.106626036046082007e+00
3.861624772658388771e+00 -3.128811117358097693e+00
3.942075288755438223e+00 -3.169456243890707015e+00
4.022525804852488562e+00 -3.194739200789982636e+00
4.102976320949538014e+00 -3.195803520947679832e+00
4.183426837046588354e+00 -3.189781599440436821e+00
4.263877353143637805e+00 -3.142649997429521669e+00
4.344327869240687257e+00 -3.080925707351001019e+00
4.424778385337737596e+00 -3.071970386677102205e+00
4.505228901434787048e+00 -3.094844598973566896e+00
4.585679417531836499e+00 -3.096271729468853984e+00
4.666129933628886839e+00 -3.080945983547251021e+00
4.746580449725936290e+00 -3.055479645185645854e+00
4.827030965822985742e+00 -3.072369892753358034e+00
4.907481481920036082e+00 -3.112820254371008399e+00
4.987931998017085533e+00 -3.164816123753865007e+00
5.068382514114135873e+00 -3.189271723527800084e+00
5.148833030211185324e+00 -3.178711043675864989e+00
5.229283546308234776e+00 -3.174292428181046954e+00
5.309734062405285115e+00 -3.156208254044085670e+00
5.390184578502334567e+00 -3.138573101069270344e+00
5.470635094599384018e+00 -3.132925104187556542e+00
5.551085610696433470e+00 -3.144509812258153403e+00
5.631536126793483810e+00 -3.169194495552902779e+00
5.711986642890533261e+00 -3.156738813469338822e+00
5.792437158987582713e+00 -3.145849329334423850e+00
5.872887675084633052e+00 -3.163947121990861255e+00
5.953338191181682504e+00 -3.174313875047008793e+00
6.033788707278731955e+00 -3.199277503532724332e+00
6.114239223375781407e+00 -3.219497374863311556e+00
6.194689739472831747e+00 -3.205064366819108557e+00
6.275140255569881198e+00 -3.170525155186905142e+00
6.355590771666931538e+00 -3.170618937621923372e+00
6.436041287763980989e+00 -3.174633166764024406e+00
6.516491803861030441e+00 -3.204102308561007195e+00
6.596942319958079892e+00 -3.230657295827872311e+00
6.677392836055131120e+00 -3.210799685147272431e+00
6.757843352152180572e+00 -3.156562736028421412e+00
6.838293868249230023e+00 -3.124939735069860891e+00
6.918744384346279475e+00 -3.124971997398060086e+00
6.999194900443328926e+00 -3.143456486069062805e+00
7.079645416540378378e+00 -3.175875942254307471e+00
7.160095932637429605e+00 -3.199253562777650828e+00
7.240546448734479057e+00 -3.183968612824619182e+00
7.320996964831528508e+00 -3.169662948873824160e+00
7.401447480928577960e+00 -3.172292196460036351e+00
7.481897997025627411e+00 -3.163490401260609097e+00
7.562348513122678639e+00 -3.143473611069759865e+00
7.642799029219728091e+00 -3.153318385412631208e+00
7.723249545316777542e+00 -3.183765655610578893e+00
7.803700061413826994e+00 -3.190129970580289243e+00
7.884150577510876445e+00 -3.195052027744410328e+00
7.964601093607927673e+00 -3.207176560877855742e+00
8.045051609704977125e+00 -3.186449523017813590e+00
8.125502125802025688e+00 -3.181102400968384813e+00
8.205952641899076028e+00 -3.209215950042573873e+00
8.286403157996124591e+00 -3.235903835991806421e+00
8.366853674093176707e+00 -3.259159735370716238e+00
8.447304190190225270e+00 -3.269847274848023844e+00
8.527754706287275610e+00 -3.252221868861369547e+00
8.608205222384324173e+00 -3.232714267429880106e+00
8.688655738481374513e+00 -3.221942676065347122e+00
8.769106254578423076e+00 -3.204594871923044153e+00
8.849556770675475192e+00 -3.191260930627667580e+00
8.930007286772523756e+00 -3.197955377798685550e+00
9.010457802869574095e+00 -3.210237916499918409e+00
9.090908318966622659e+00 -3.230139619270907758e+00
9.171358835063672998e+00 -3.260980180559888808e+00
9.251809351160723338e+00 -3.270331786196166490e+00
9.332259867257773678e+00 -3.262683756078731179e+00
9.412710383354822241e+00 -3.237810326178135245e+00
9.493160899451872581e+00 -3.234199542146200645e+00
9.573611415548921144e+00 -3.258433436915320947e+00
9.654061931645971484e+00 -3.281816243992353499e+00
9.734512447743021823e+00 -3.257865762535147702e+00
9.814962963840072163e+00 -3.261414150578827886e+00
9.895413479937120727e+00 -3.292795932314438900e+00
9.975863996034171066e+00 -3.312313364247363445e+00
1.005631451213121963e+01 -3.309921760090602127e+00
1.013676502822827175e+01 -3.300339728528770777e+00
1.021721554432532031e+01 -3.313686097460080582e+00
1.029766606042237065e+01 -3.336045774997189906e+00
