0.000000000000000000e+00 -1.549019599857431873e-01
8.045051609704977069e-02 -1.992624184706872359e-01
1.609010321940995414e-01 -4.902100007989093622e-01
2.413515482911492982e-01 -1.269420974717834660e+00
3.218020643881990828e-01 -1.673381642260654223e+00
4.022525804852488118e-01 -2.621824743402982882e+00
4.827030965822985964e-01 -3.212416767609108881e+00
5.631536126793483810e-01 -3.307458496707667894e+00
6.436041287763981655e-01 -3.422309816364739188e+00
7.240546448734478391e-01 -3.530121430144043337e+00
8.045051609704976237e-01 -3.681019483867364439e+00
8.849556770675472972e-01 -3.811912405643626656e+00
9.654061931645971928e-01 -3.849453685352866472e+00
1.045856709261647088e+00 -3.879598503212300376e+00
1.126307225358696762e+00 -3.914566956980682022e+00
1.206757741455746435e+00 -3.907730987404316458e+00
1.287208257552796331e+00 -3.865632885389295392e+00
1.367658773649846005e+00 -3.751530133559609848e+00
1.448109289746895678e+00 -3.663922109025262497e+00
1.528559805843945352e+00 -3.613888439293180710e+00
1.609010321940995247e+00 -3.540689774179625715e+00
1.689460838038045143e+00 -3.470563630006923805e+00
1.769911354135094594e+00 -3.428571512122717824e+00
1.850361870232144490e+00 -3.397556435194643232e+00
1.930812386329194386e+00 -3.344776920456461244e+00
2.011262902426244281e+00 -3.267316931797883850e+00
2.091713418523294177e+00 -3.146715448270597015e+00
2.172163934620343628e+00 -3.072504851709400686e+00
2.252614450717393524e+00 -3.053577746256918690e+00
2.333064966814443419e+00 -3.048782485339277759e+00
2.413515482911492871e+00 -3.056292448273437046e+00
2.493965999008542767e+00 -3.096131732688682803e+00
2.574416515105592662e+00 -3.145556839633182111e+00
2.654867031202642558e+00 -3.221019653295519536e+00
2.735317547299692009e+00 -3.286398878490007558e+00
2.815768063396741905e+00 -3.327099914670804903e+00
2.896218579493791356e+00 -3.373453275666355111e+00
2.976669095590841252e+00 -3.339761161313839377e+00
3.057119611687890703e+00 -3.298676916868102271e+00
3.137570127784940599e+00 -3.265262523474512513e+00
3.218020643881990495e+00 -3.257353228684276125e+00
3.298471159979039946e+00 -3.249690516592290468e+00
3.378921676076090286e+00 -3.286853895728467645e+00
3.459372192173139737e+00 -3.320440109169760845e+00
3.539822708270189189e+00 -3.305976993590768576e+00
3.620273224367239528e+00 -3.260452515360908965e+00
3.700723740464288980e+00 -3.217359662831222433e+00
3.781174256561339320e+00 -3.210828448340255381e+00
3.861624772658388771e+00 -3.257172890617316519e+00
3.942075288755438223e+00 -3.303249146564407379e+00
4.022525804852488562e+00 -3.307254606497781690e+00
4.102976320949538014e+00 -3.285852014366608564e+00
4.183426837046588354e+00 -3.292432428196463867e+00
4.263877353143637805e+00 -3.301409303222087033e+00
4.344327869240687257e+00 -3.289298737733492128e+00
4.424778385337737596e+00 -3.256709127696329364e+00
4.505228901434787048e+00 -3.240897817679797122e+00
4.585679417531836499e+00 -3.213479581881613090e+00
4.666129933628886839e+00 -3.198493228589343484e+00
4.746580449725936290e+00 -3.224764908400301167e+00
4.827030965822985742e+00 -3.264434440827998163e+00
4.907481481920036082e+00 -3.276271997719979012e+00
4.987931998017085533e+00 -3.288476416026572036e+00
5.068382514114135873e+00 -3.312394087127699560e+00
5.148833030211185324e+00 -3.278403408990745227e+00
5.229283546308234776e+00 -3.219960446931854126e+00
5.309734062405285115e+00 -3.222173212924257513e+00
5.390184578502334567e+00 -3.279834648080035553e+00
5.470635094599384018e+00 -3.317394270348805296e+00
5.551085610696433470e+00 -3.319675262895539269e+00
5.631536126793483810e+00 -3.307871950196577870e+00
5.711986642890533261e+00 -3.290935653198503452e+00
5.792437158987582713e+00 -3.301455671840067385e+00
5.872887675084633052e+00 -3.330768776410673926e+00
5.953338191181682504e+00 -3.375309604507836347e+00
6.033788707278731955e+00 -3.370356065059821660e+00
6.114239223375781407e+00 -3.336593330873223184e+00
6.194689739472831747e+00 -3.320670801220016788e+00
6.275140255569881198e+00 -3.310360364793379695e+00
6.355590771666931538e+00 -3.297677532091333408e+00
6.436041287763980989e+00 -3.280563926164783428e+00
6.516491803861030441e+00 -3.281903958874163418e+00
6.596942319958079892e+00 -3.286029127009606476e+00
6.677392836055131120e+00 -3.292760294566456469e+00
6.757843352152180572e+00 -3.321846371459840963e+00
6.838293868249230023e+00 -3.336733460095612447e+00
6.918744384346279475e+00 -3.341928843763303458e+00
6.999194900443328926e+00 -3.359393738155991294e+00
7.079645416540378378e+00 -3.366117719835986399e+00
7.160095932637429605e+00 -3.328964722793687159e+00
7.240546448734479057e+00 -3.295710518292698676e+00
7.320996964831528508e+00 -3.291232956023340872e+00
7.401447480928577960e+00 -3.321973404460512924e+00
7.481897997025627411e+00 -3.349102718998525408e+00
7.562348513122678639e+00 -3.383079765536255223e+00
7.642799029219728091e+00 -3.377453520027249745e+00
7.723249545316777542e+00 -3.373953949630017934e+00
7.803700061413826994e+00 -3.408033962701498165e+00
7.884150577510876445e+00 -3.449879978665101987e+00
7.964601093607927673e+00 -3.457892130441387657e+00
8.045051609704977125e+00 -3.423320518459791018e+00
8.125502125802025688e+00 -3.400142953902929310e+00
8.205952641899076028e+00 -3.366553163768929657e+00
8.286403157996124591e+00 -3.330105311375236798e+00
8.366853674093176707e+00 -3.323028672706811015e+00
8.447304190190225270e+00 -3.349097522533061255e+00
8.527754706287275610e+00 -3.393985556448937402e+00
8.608205222384324173e+00 -3.434814364419313204e+00
8.688655738481374513e+00 -3.429140734453076433e+00
8.769106254578423076e+00 -3.410289064083009247e+00
8.849556770675475192e+00 -3.402596634800225672e+00
8.930007286772523756e+00 -3.405581108263795009e+00
9.010457802869574095e+00 -3.386308284088292542e+00
9.090908318966622659e+00 -3.360056057017134279e+00
9.171358835063672998e+00 -3.374625279892635277e+00
9.251809351160723338e+00 -3.409377016733445842e+00
9.332259867257773678e+00 -3.435446076810484417e+00
9.412710383354822241e+00 -3.457568501490254409e+00
9.493160899451872581e+00 -3.454460766669348537e+00
9.573611415548921144e+00 -3.443835112311330438e+00
9.654061931645971484e+00 -3.414456106920549239e+00
9.734512447743021823e+00 -3.390051942390898354e+00
9.814962963840072163e+00 -3.383295231171198569e+00
9.895413479937120727e+00 -3.381094177407935941e+00
9.975863996034171066e+00 -3.387055431038562769e+00
1.005631451213121963e+01 -3.436856268157444827e+00
1.013676502822827175e+01 -3.470968050073677258e+00
1.021721554432532031e+01 -3.453032426715513914e+00
1.029766606042237065e+01 -3.431788058997201407e+00
