0.000000000000000000e+00 -1.549019599857431873e-01
8.045051609704977069e-02 -2.068969277564846054e-01
1.609010321940995414e-01 -5.952384150105939353e-01
2.413515482911492982e-01 -1.421642289558989303e+00
3.218020643881990828e-01 -1.753598988742337772e+00
4.022525804852488118e-01 -2.351137363996175011e+00
4.827030965822985964e-01 -2.869076807332151535e+00
5.631536126793483810e-01 -3.130818747063238927e+00
6.436041287763981655e-01 -3.317084749223860651e+00
7.240546448734478391e-01 -3.542939890207757347e+00
8.045051609704976237e-01 -3.693990205301524110e+00
8.849556770675472972e-01 -3.805000222768566864e+00
9.654061931645971928e-01 -3.828845244121497515e+00
1.045856709261647088e+00 -3.735056612734974024e+00
1.126307225358696762e+00 -3.667436315711538608e+00
1.206757741455746435e+00 -3.661221108652962020e+00
1.287208257552796331e+00 -3.733146347299066026e+00
1.367658773649846005e+00 -3.797336102120088874e+00
1.448109289746895678e+00 -3.792299049575011072e+00
1.528559805843945352e+00 -3.695040594036799853e+00
1.609010321940995247e+00 -3.617305466728662822e+00
1.689460838038045143e+00 -3.540833476592553986e+00
1.769911354135094594e+00 -3.421903216492686806e+00
1.850361870232144490e+00 -3.328675909322960536e+00
1.930812386329194386e+00 -3.301045364990207176e+00
2.011262902426244281e+00 -3.257978154446863339e+00
2.091713418523294177e+00 -3.198223324721208627e+00
2.172163934620343628e+00 -3.159138923822871536e+00
2.252614450717393524e+00 -3.138216497082622958e+00
2.333064966814443419e+00 -3.139090237991173815e+00
2.413515482911492871e+00 -3.170349599939261243e+00
2.493965999008542767e+00 -3.211044527662092030e+00
2.574416515105592662e+00 -3.262700198281248021e+00
2.654867031202642558e+00 -3.286280385206954868e+00
2.735317547299692009e+00 -3.252168677860726387e+00
2.815768063396741905e+00 -3.229134064533153659e+00
2.896218579493791356e+00 -3.264154938575159814e+00
2.976669095590841252e+00 -3.283435861820730661e+00
3.057119611687890703e+00 -3.228723438753032582e+00
3.137570127784940599e+00 -3.193550998213466219e+00
3.218020643881990495e+00 -3.198275426331298465e+00
3.298471159979039946e+00 -3.189741961306044260e+00
3.378921676076090286e+00 -3.182412129120610444e+00
3.459372192173139737e+00 -3.231398476422676858e+00
3.539822708270189189e+00 -3.265116474884597331e+00
3.620273224367239528e+00 -3.254841287169603525e+00
3.700723740464288980e+00 -3.274034789299431925e+00
3.781174256561339320e+00 -3.284222751052157108e+00
3.861624772658388771e+00 -3.236907904926435098e+00
3.942075288755438223e+00 -3.203223815113079631e+00
4.022525804852488562e+00 -3.204249483716479663e+00
4.102976320949538014e+00 -3.194958648028556336e+00
4.183426837046588354e+00 -3.183892701961099636e+00
4.263877353143637805e+00 -3.233237057003585768e+00
4.344327869240687257e+00 -3.295819828553291586e+00
4.424778385337737596e+00 -3.315375931192634518e+00
4.505228901434787048e+00 -3.296716853979960504e+00
4.585679417531836499e+00 -3.267042667657532373e+00
4.666129933628886839e+00 -3.238384550420149832e+00
4.746580449725936290e+00 -3.231544197787894479e+00
4.827030965822985742e+00 -3.263109486783422497e+00
4.907481481920036082e+00 -3.284594017004682343e+00
4.987931998017085533e+00 -3.308207024729446832e+00
5.068382514114135873e+00 -3.316444080494394875e+00
5.148833030211185324e+00 -3.289560576833967520e+00
5.229283546308234776e+00 -3.266146389217688295e+00
5.309734062405285115e+00 -3.252238916761013066e+00
5.390184578502334567e+00 -3.247121894026792965e+00
5.470635094599384018e+00 -3.240700136343000803e+00
5.551085610696433470e+00 -3.236790846118560605e+00
5.631536126793483810e+00 -3.243226853768633955e+00
5.711986642890533261e+00 -3.250514371211138176e+00
5.792437158987582713e+00 -3.271312360376471329e+00
5.872887675084633052e+00 -3.294644496107201892e+00
5.953338191181682504e+00 -3.305435592434282643e+00
6.033788707278731955e+00 -3.294423683065353270e+00
6.114239223375781407e+00 -3.287345053992183352e+00
6.194689739472831747e+00 -3.290305455621700403e+00
6.275140255569881198e+00 -3.299993034635163802e+00
6.355590771666931538e+00 -3.303285324443712145e+00
6.436041287763980989e+00 -3.306072697869417709e+00
6.516491803861030441e+00 -3.312403989039778285e+00
6.596942319958079892e+00 -3.331222499059744990e+00
6.677392836055131120e+00 -3.349672811651572601e+00
6.757843352152180572e+00 -3.348099815854419514e+00
6.838293868249230023e+00 -3.365242453838142023e+00
6.918744384346279475e+00 -3.382108996627690711e+00
6.999194900443328926e+00 -3.355934087857825876e+00
7.079645416540378378e+00 -3.335146068940003428e+00
7.160095932637429605e+00 -3.328159516894456438e+00
7.240546448734479057e+00 -3.370370306258502424e+00
7.320996964831528508e+00 -3.390426503553545690e+00
7.401447480928577960e+00 -3.371932822321867640e+00
7.481897997025627411e+00 -3.350452428506645486e+00
7.562348513122678639e+00 -3.339075370006721499e+00
7.642799029219728091e+00 -3.320673715745856569e+00
7.723249545316777542e+00 -3.289372146574684574e+00
7.803700061413826994e+00 -3.307187518480914967e+00
7.884150577510876445e+00 -3.317666818850863120e+00
7.964601093607927673e+00 -3.303935208248519384e+00
8.045051609704977125e+00 -3.317801997090307875e+00
8.125502125802025688e+00 -3.370057032031493982e+00
8.205952641899076028e+00 -3.412173051238152510e+00
8.286403157996124591e+00 -3.399503178961909899e+00
8.366853674093176707e+00 -3.378812593060016134e+00
8.447304190190225270e+00 -3.371424811192213156e+00
8.527754706287275610e+00 -3.370683859111071712e+00
8.608205222384324173e+00 -3.378232604728721888e+00
8.688655738481374513e+00 -3.413302288397459527e+00
8.769106254578423076e+00 -3.428764956146729936e+00
8.849556770675475192e+00 -3.412937454667399617e+00
8.930007286772523756e+00 -3.411037709457772849e+00
9.010457802869574095e+00 -3.417032021731660318e+00
9.090908318966622659e+00 -3.418623470833907163e+00
9.171358835063672998e+00 -3.409714493827942228e+00
9.251809351160723338e+00 -3.411714957952571847e+00
9.332259867257773678e+00 -3.399605029055309480e+00
9.412710383354822241e+00 -3.430815315670924459e+00
9.493160899451872581e+00 -3.474557548046606215e+00
9.573611415548921144e+00 -3.499478810150012276e+00
9.654061931645971484e+00 -3.496162969926437825e+00
9.734512447743021823e+00 -3.478085005549324649e+00
9.814962963840072163e+00 -3.462120900152005465e+00
9.895413479937120727e+00 -3.460829507490315926e+00
9.975863996034171066e+00 -3.450799459382721146e+00
1.005631451213121963e+01 -3.412883930184033243e+00
1.013676502822827175e+01 -3.392875327384839323e+00
1.021721554432532031e+01 -3.398090155630869802e+00
1.029766606042237065e+01 -3.419155505177275511e+00
