0.000000000000000000e+00 -1.549019599857431873e-01
8.045051609704977069e-02 -3.918884831915286360e-01
1.609010321940995414e-01 -1.149145640947804470e+00
2.413515482911492982e-01 -2.287983043263542182e+00
3.218020643881990828e-01 -2.233633290223581369e+00
4.022525804852488118e-01 -2.263213858544441237e+00
4.827030965822985964e-01 -2.658657348595750758e+00
5.631536126793483810e-01 -3.420753742528496844e+00
6.436041287763981655e-01 -4.285958620965160115e+00
7.240546448734478391e-01 -4.844151480194939907e+00
8.045051609704976237e-01 -5.115093572124217225e+00
8.849556770675472972e-01 -5.294603611582338054e+00
9.654061931645971928e-01 -5.516431449788306018e+00
1.045856709261647088e+00 -5.602024544144411422e+00
1.126307225358696762e+00 -5.518590827988744785e+00
1.206757741455746435e+00 -5.594624326123355473e+00
1.287208257552796331e+00 -5.692904972420548049e+00
1.367658773649846005e+00 -5.722614503563293376e+00
1.448109289746895678e+00 -5.752393864693310377e+00
1.528559805843945352e+00 -5.788278990856428052e+00
1.609010321940995247e+00 -5.709856358774295870e+00
1.689460838038045143e+00 -5.620282074256865990e+00
1.769911354135094594e+00 -5.464435882811246259e+00
1.850361870232144490e+00 -5.328631392898406816e+00
1.930812386329194386e+00 -5.267517642841537118e+00
2.011262902426244281e+00 -5.315968045639226425e+00
2.091713418523294177e+00 -5.280222424811620741e+00
2.172163934620343628e+00 -5.160244494575714214e+00
2.252614450717393524e+00 -5.095406356147723415e+00
2.333064966814443419e+00 -5.102960175971419154e+00
2.413515482911492871e+00 -5.092651577701399646e+00
2.493965999008542767e+00 -5.071910564320959658e+00
2.574416515105592662e+00 -5.134854603027284803e+00
2.654867031202642558e+00 -5.173716023794400876e+00
2.735317547299692009e+00 -5.106981209121193466e+00
2.815768063396741905e+00 -5.066299564089616680e+00
2.896218579493791356e+00 -5.089156081024806433e+00
2.976669095590841252e+00 -5.079078670141153218e+00
3.057119611687890703e+00 -5.054750267025100996e+00
3.137570127784940599e+00 -5.095520231987008763e+00
3.218020643881990495e+00 -5.186370088119283572e+00
3.298471159979039946e+00 -5.201452263250393671e+00
3.378921676076090286e+00 -5.174317595371977774e+00
3.459372192173139737e+00 -5.193766783665178188e+00
3.539822708270189189e+00 -5.290080951490168992e+00
3.620273224367239528e+00 -5.348379561272923688e+00
3.700723740464288980e+00 -5.322032997712033087e+00
3.781174256561339320e+00 -5.285974595467403780e+00
3.861624772658388771e+00 -5.354360263298474365e+00
3.942075288755438223e+00 -5.438755629469313568e+00
4.022525804852488562e+00 -5.423666977885148732e+00
4.102976320949538014e+00 -5.365041793746910592e+00
4.183426837046588354e+00 -5.330334967765375964e+00
4.263877353143637805e+00 -5.327064763584473006e+00
4.344327869240687257e+00 -5.310622450651648840e+00
4.424778385337737596e+00 -5.331084557413050540e+00
4.505228901434787048e+00 -5.349134874723053379e+00
4.585679417531836499e+00 -5.360186400212094249e+00
4.666129933628886839e+00 -5.332960041869603707e+00
4.746580449725936290e+00 -5.349615763998246010e+00
4.827030965822985742e+00 -5.394354180306630830e+00
4.907481481920036082e+00 -5.413532781045393705e+00
4.987931998017085533e+00 -5.419482639692157377e+00
5.068382514114135873e+00 -5.466293351507136578e+00
5.148833030211185324e+00 -5.486744960256102033e+00
5.229283546308234776e+00 -5.536868191650087923e+00
5.309734062405285115e+00 -5.543118496410897933e+00
5.390184578502334567e+00 -5.509997650445493278e+00
5.470635094599384018e+00 -5.487105760890010231e+00
5.551085610696433470e+00 -5.439365832343285412e+00
5.631536126793483810e+00 -5.338768726473865023e+00
5.711986642890533261e+00 -5.252098421836152831e+00
5.792437158987582713e+00 -5.247703945068368903e+00
5.872887675084633052e+00 -5.233951569297804696e+00
5.953338191181682504e+00 -5.209421598070632875e+00
6.033788707278731955e+00 -5.252747912382228712e+00
6.114239223375781407e+00 -5.319917971411678437e+00
6.194689739472831747e+00 -5.335118969242356179e+00
6.275140255569881198e+00 -5.286221696857606567e+00
6.355590771666931538e+00 -5.223613946995705248e+00
6.436041287763980989e+00 -5.170056530575545040e+00
6.516491803861030441e+00 -5.164312548977480155e+00
6.596942319958079892e+00 -5.206761094795827383e+00
6.677392836055131120e+00 -5.273010459588632237e+00
6.757843352152180572e+00 -5.350862598774035028e+00
6.838293868249230023e+00 -5.425695276689175728e+00
6.918744384346279475e+00 -5.492787502401967892e+00
6.999194900443328926e+00 -5.540634685727020781e+00
7.079645416540378378e+00 -5.552653426642491397e+00
7.160095932637429605e+00 -5.530074471389789359e+00
7.240546448734479057e+00 -5.490126806448280661e+00
7.320996964831528508e+00 -5.432922820920115470e+00
7.401447480928577960e+00 -5.378642475350093655e+00
7.481897997025627411e+00 -5.385061892502275960e+00
7.562348513122678639e+00 -5.464721574477692911e+00
7.642799029219728091e+00 -5.471654166266621822e+00
7.723249545316777542e+00 -5.426569135978099645e+00
7.803700061413826994e+00 -5.427848201351145541e+00
7.884150577510876445e+00 -5.480363945180702245e+00
7.964601093607927673e+00 -5.540557839417037833e+00
8.045051609704977125e+00 -5.594643458425417215e+00
8.125502125802025688e+00 -5.617138587631015589e+00
8.205952641899076028e+00 -5.583466905425638060e+00
8.286403157996124591e+00 -5.560885413642791875e+00
8.366853674093176707e+00 -5.557581120508962691e+00
8.447304190190225270e+00 -5.537531730386808348e+00
8.527754706287275610e+00 -5.504115149372212024e+00
8.608205222384324173e+00 -5.550823219373635986e+00
8.688655738481374513e+00 -5.595875889618908694e+00
8.769106254578423076e+00 -5.629346284296076419e+00
8.849556770675475192e+00 -5.623634151226576172e+00
8.930007286772523756e+00 -5.561687539634965205e+00
9.010457802869574095e+00 -5.483699502274300919e+00
9.090908318966622659e+00 -5.475510855060822912e+00
9.171358835063672998e+00 -5.523762238684127190e+00
9.251809351160723338e+00 -5.546790852638836533e+00
9.332259867257773678e+00 -5.545421866578513992e+00
9.412710383354822241e+00 -5.598578075979250279e+00
9.493160899451872581e+00 -5.637955420358911063e+00
9.573611415548921144e+00 -5.590123960578917028e+00
9.654061931645971484e+00 -5.557671142824673893e+00
9.734512447743021823e+00 -5.570561295042689487e+00
9.814962963840072163e+00 -5.541132543793278131e+00
9.895413479937120727e+00 -5.541653297270524803e+00
9.975863996034171066e+00 -5.548072302614933449e+00
1.005631451213121963e+01 -5.582591939265468817e+00
1.013676502822827175e+01 -5.589281832612559953e+00
1.021721554432532031e+01 -5.587553853955291139e+00
1.029766606042237065e+01 -5.600383579800356060e+00
