0.000000000000000000e+00 -1.549019599857431873e-01
8.045051609704977069e-02 -1.793167525900114245e-01
1.609010321940995414e-01 -4.593947270754959455e-01
2.413515482911492982e-01 -1.403867794208665476e+00
3.218020643881990828e-01 -1.681370354984131676e+00
4.022525804852488118e-01 -1.568950883339725655e+00
4.827030965822985964e-01 -1.637883822905313425e+00
5.631536126793483810e-01 -1.832155932915666474e+00
6.436041287763981655e-01 -2.180213378773225408e+00
7.240546448734478391e-01 -2.437743290905763693e+00
8.045051609704976237e-01 -2.598579363254430064e+00
8.849556770675472972e-01 -2.689806294365311601e+00
9.654061931645971928e-01 -2.699262328558171387e+00
1.045856709261647088e+00 -2.739619977870186851e+00
1.126307225358696762e+00 -2.793014041375201373e+00
1.206757741455746435e+00 -2.856084257809799354e+00
1.287208257552796331e+00 -2.906802250163729173e+00
1.367658773649846005e+00 -2.906545933646799806e+00
1.448109289746895678e+00 -2.894072525894222814e+00
1.528559805843945352e+00 -2.889466972726538962e+00
1.609010321940995247e+00 -2.827053461617580865e+00
1.689460838038045143e+00 -2.783003985961291615e+00
1.769911354135094594e+00 -2.777199850915209822e+00
1.850361870232144490e+00 -2.785534519748852578e+00
1.930812386329194386e+00 -2.773384073763334179e+00
2.011262902426244281e+00 -2.697673099079779035e+00
2.091713418523294177e+00 -2.658980406344198855e+00
2.172163934620343628e+00 -2.693241821207378539e+00
2.252614450717393524e+00 -2.743748048698653186e+00
2.333064966814443419e+00 -2.743782445542819914e+00
2.413515482911492871e+00 -2.706720385307592291e+00
2.493965999008542767e+00 -2.673994434368017092e+00
2.574416515105592662e+00 -2.670818999435017549e+00
2.654867031202642558e+00 -2.700796927111408063e+00
2.735317547299692009e+00 -2.721141477920599794e+00
2.815768063396741905e+00 -2.694454045020091115e+00
2.896218579493791356e+00 -2.663898702050464973e+00
2.976669095590841252e+00 -2.648732787758444562e+00
3.057119611687890703e+00 -2.650828506224406578e+00
3.137570127784940599e+00 -2.664873902212648193e+00
3.218020643881990495e+00 -2.649762336288134623e+00
3.298471159979039946e+00 -2.624688507725588149e+00
3.378921676076090286e+00 -2.599050980630918328e+00
3.459372192173139737e+00 -2.625233612126586902e+00
3.539822708270189189e+00 -2.667284397479605662e+00
3.620273224367239528e+00 -2.677484458518567756e+00
3.700723740464288980e+00 -2.698546420275306446e+00
3.781174256561339320e+00 -2.711898623228445881e+00
3.861624772658388771e+00 -2.695962761650080530e+00
3.942075288755438223e+00 -2.659839106212506632e+00
4.022525804852488562e+00 -2.630748900427685832e+00
4.102976320949538014e+00 -2.641615680758184759e+00
4.183426837046588354e+00 -2.667415669217890972e+00
4.263877353143637805e+00 -2.697561498408744818e+00
4.344327869240687257e+00 -2.704441136980880067e+00
4.424778385337737596e+00 -2.710888612389176444e+00
4.505228901434787048e+00 -2.720176063125077981e+00
4.585679417531836499e+00 -2.709064641778766713e+00
4.666129933628886839e+00 -2.644629761233872056e+00
4.746580449725936290e+00 -2.619017820778525074e+00
4.827030965822985742e+00 -2.621923272922357384e+00
4.907481481920036082e+00 -2.611102316982396587e+00
4.987931998017085533e+00 -2.621408900621221783e+00
5.068382514114135873e+00 -2.643786329007315583e+00
5.148833030211185324e+00 -2.652530301999190598e+00
5.229283546308234776e+00 -2.653894693518790593e+00
5.309734062405285115e+00 -2.665041142252592365e+00
5.390184578502334567e+00 -2.676080019033387991e+00
5.470635094599384018e+00 -2.715005631532665831e+00
5.551085610696433470e+00 -2.744290014364054286e+00
5.631536126793483810e+00 -2.720947275106501362e+00
5.711986642890533261e+00 -2.678630367248203914e+00
5.792437158987582713e+00 -2.645847659236230331e+00
5.872887675084633052e+00 -2.641426725687261889e+00
5.953338191181682504e+00 -2.650300783486102763e+00
6.033788707278731955e+00 -2.642966558812864353e+00
6.114239223375781407e+00 -2.636432142326789574e+00
6.194689739472831747e+00 -2.658369601481575195e+00
6.275140255569881198e+00 -2.676070640724731664e+00
6.355590771666931538e+00 -2.685497570952106283e+00
6.436041287763980989e+00 -2.691526101271884297e+00
6.516491803861030441e+00 -2.713505002269202659e+00
6.596942319958079892e+00 -2.730920173626773639e+00
6.677392836055131120e+00 -2.751608023041852036e+00
6.757843352152180572e+00 -2.768386966674995175e+00
6.838293868249230023e+00 -2.766842660960499689e+00
6.918744384346279475e+00 -2.738972064347297231e+00
6.999194900443328926e+00 -2.721139809627184381e+00
7.079645416540378378e+00 -2.695306897272877755e+00
7.160095932637429605e+00 -2.662773913631416356e+00
7.240546448734479057e+00 -2.629438147831647754e+00
7.320996964831528508e+00 -2.641297134795518087e+00
7.401447480928577960e+00 -2.651199993615890538e+00
7.481897997025627411e+00 -2.679554704363319662e+00
7.562348513122678639e+00 -2.727484312271005518e+00
7.642799029219728091e+00 -2.764350078869152405e+00
7.723249545316777542e+00 -2.785494757062102256e+00
7.803700061413826994e+00 -2.765114329116170833e+00
7.884150577510876445e+00 -2.750963539086477727e+00
7.964601093607927673e+00 -2.767847899092932273e+00
8.045051609704977125e+00 -2.776210138033547103e+00
8.125502125802025688e+00 -2.750528398565146304e+00
8.205952641899076028e+00 -2.732751107003808855e+00
8.286403157996124591e+00 -2.753448645426763708e+00
8.366853674093176707e+00 -2.774267354889523141e+00
8.447304190190225270e+00 -2.754707049574951050e+00
8.527754706287275610e+00 -2.731029291431370520e+00
8.608205222384324173e+00 -2.749288969848623587e+00
8.688655738481374513e+00 -2.761616326730498283e+00
8.769106254578423076e+00 -2.774207907179473853e+00
8.849556770675475192e+00 -2.781378957179963862e+00
8.930007286772523756e+00 -2.769005264857576254e+00
9.010457802869574095e+00 -2.735550210475794941e+00
9.090908318966622659e+00 -2.744231850284879926e+00
9.171358835063672998e+00 -2.766478084987803232e+00
9.251809351160723338e+00 -2.782421856059447585e+00
9.332259867257773678e+00 -2.801673162429393571e+00
9.412710383354822241e+00 -2.816046473591169885e+00
9.493160899451872581e+00 -2.831669430564415446e+00
9.573611415548921144e+00 -2.854669527738707746e+00
9.654061931645971484e+00 -2.870341930721902468e+00
9.734512447743021823e+00 -2.858837607066653241e+00
9.814962963840072163e+00 -2.833317126837441080e+00
9.895413479937120727e+00 -2.814650592561491305e+00
9.975863996034171066e+00 -2.803594566364731033e+00
1.005631451213121963e+01 -2.804918334762401599e+00
1.013676502822827175e+01 -2.808097877036964896e+00
1.021721554432532031e+01 -2.827817167125386444e+00
1.029766606042237065e+01 -2.833659308569127955e+00
