0.000000000000000000e+00 -1.549019599857431873e-01
8.045051609704977069e-02 -1.946621559556932779e-01
1.609010321940995414e-01 -5.093775630778344388e-01
2.413515482911492982e-01 -1.225322875493793706e+00
3.218020643881990828e-01 -1.795078843863522122e+00
4.022525804852488118e-01 -2.437429138784014793e+00
4.827030965822985964e-01 -2.956988608356277304e+00
5.631536126793483810e-01 -3.051340014859623473e+00
6.436041287763981655e-01 -3.154946944912271789e+00
7.240546448734478391e-01 -3.298160378613407939e+00
8.045051609704976237e-01 -3.493361376251870709e+00
8.849556770675472972e-01 -3.608350927168685995e+00
9.654061931645971928e-01 -3.673759901977713405e+00
1.045856709261647088e+00 -3.674903374643535336e+00
1.126307225358696762e+00 -3.706529431171582178e+00
1.206757741455746435e+00 -3.794814701980111060e+00
1.287208257552796331e+00 -3.848620446552947882e+00
1.367658773649846005e+00 -3.755614102375759877e+00
1.448109289746895678e+00 -3.646783532404939354e+00
1.528559805843945352e+00 -3.621764474709427528e+00
1.609010321940995247e+00 -3.628563856479001259e+00
1.689460838038045143e+00 -3.581430812707483646e+00
1.769911354135094594e+00 -3.493946661804751663e+00
1.850361870232144490e+00 -3.404280861317814377e+00
1.930812386329194386e+00 -3.309319211867486565e+00
2.011262902426244281e+00 -3.228032169228541193e+00
2.091713418523294177e+00 -3.174722737336341805e+00
2.172163934620343628e+00 -3.145307498961065651e+00
2.252614450717393524e+00 -3.118845274021410319e+00
2.333064966814443419e+00 -3.116566705458118758e+00
2.413515482911492871e+00 -3.120067372865994670e+00
2.493965999008542767e+00 -3.176328356370316186e+00
2.574416515105592662e+00 -3.202030291755115332e+00
2.654867031202642558e+00 -3.190231992017412921e+00
2.735317547299692009e+00 -3.174478037118363183e+00
2.815768063396741905e+00 -3.178317584644088090e+00
2.896218579493791356e+00 -3.156254666795072605e+00
2.976669095590841252e+00 -3.174801071068903191e+00
3.057119611687890703e+00 -3.231618056139908823e+00
3.137570127784940599e+00 -3.256358258551152574e+00
3.218020643881990495e+00 -3.281314312398797561e+00
3.298471159979039946e+00 -3.277260966788076768e+00
3.378921676076090286e+00 -3.229058548618626734e+00
3.459372192173139737e+00 -3.188810003982470054e+00
3.539822708270189189e+00 -3.181260209581775911e+00
3.620273224367239528e+00 -3.184232562862755245e+00
3.700723740464288980e+00 -3.191279110256605822e+00
3.781174256561339320e+00 -3.192699434932996461e+00
3.861624772658388771e+00 -3.209182563761824980e+00
3.942075288755438223e+00 -3.241422984195196477e+00
4.022525804852488562e+00 -3.252224671194112737e+00
4.102976320949538014e+00 -3.230771634638378575e+00
4.183426837046588354e+00 -3.201258165409369028e+00
4.263877353143637805e+00 -3.174809279278241192e+00
4.344327869240687257e+00 -3.215556970547164717e+00
4.424778385337737596e+00 -3.282559933168132105e+00
4.505228901434787048e+00 -3.298555377189581250e+00
4.585679417531836499e+00 -3.292768704772124355e+00
4.666129933628886839e+00 -3.295804104766157927e+00
4.746580449725936290e+00 -3.299373376096121913e+00
4.827030965822985742e+00 -3.319427786374239187e+00
4.907481481920036082e+00 -3.340765599036013001e+00
4.987931998017085533e+00 -3.314687292811281605e+00
5.068382514114135873e+00 -3.252479583935835361e+00
5.148833030211185324e+00 -3.214083070556452260e+00
5.229283546308234776e+00 -3.204104851733732051e+00
5.309734062405285115e+00 -3.220954741050470638e+00
5.390184578502334567e+00 -3.245269084133807436e+00
5.470635094599384018e+00 -3.236551356865554396e+00
5.551085610696433470e+00 -3.232753700238941708e+00
5.631536126793483810e+00 -3.241441172712081986e+00
5.711986642890533261e+00 -3.234865442083376674e+00
5.792437158987582713e+00 -3.232596833941105974e+00
5.872887675084633052e+00 -3.251810448370837658e+00
5.953338191181682504e+00 -3.290223656093559601e+00
6.033788707278731955e+00 -3.323371399726981146e+00
6.114239223375781407e+00 -3.317689412617447875e+00
6.194689739472831747e+00 -3.289586745985138005e+00
6.275140255569881198e+00 -3.286075519390208921e+00
6.355590771666931538e+00 -3.291815606242691761e+00
6.436041287763980989e+00 -3.312198017816316398e+00
6.516491803861030441e+00 -3.318676324277887169e+00
6.596942319958079892e+00 -3.282332318570758467e+00
6.677392836055131120e+00 -3.253604591870505658e+00
6.757843352152180572e+00 -3.234356018967318391e+00
6.838293868249230023e+00 -3.252208272693570379e+00
6.918744384346279475e+00 -3.264116430870577901e+00
6.999194900443328926e+00 -3.268342170788732126e+00
7.079645416540378378e+00 -3.277427683508375100e+00
7.160095932637429605e+00 -3.277818778598297289e+00
7.240546448734479057e+00 -3.283284071331312060e+00
7.320996964831528508e+00 -3.310352506443954734e+00
7.401447480928577960e+00 -3.332467370685575858e+00
7.481897997025627411e+00 -3.336317469134593150e+00
7.562348513122678639e+00 -3.333766663274657205e+00
7.642799029219728091e+00 -3.325837078698544946e+00
7.723249545316777542e+00 -3.337938137681296435e+00
7.803700061413826994e+00 -3.339828045580313542e+00
7.884150577510876445e+00 -3.334208644172930835e+00
7.964601093607927673e+00 -3.327466002606758178e+00
8.045051609704977125e+00 -3.324489902198050739e+00
8.125502125802025688e+00 -3.311503249271124272e+00
8.205952641899076028e+00 -3.304239653308073787e+00
8.286403157996124591e+00 -3.336584471604383317e+00
8.366853674093176707e+00 -3.359658842404246837e+00
8.447304190190225270e+00 -3.364882050198281238e+00
8.527754706287275610e+00 -3.355903824901359744e+00
8.608205222384324173e+00 -3.344410340365607581e+00
8.688655738481374513e+00 -3.319230374175730525e+00
8.769106254578423076e+00 -3.305788114599688576e+00
8.849556770675475192e+00 -3.300987165439665638e+00
8.930007286772523756e+00 -3.314044538346306190e+00
9.010457802869574095e+00 -3.344045516842443000e+00
9.090908318966622659e+00 -3.367499329370998495e+00
9.171358835063672998e+00 -3.368611064431098701e+00
9.251809351160723338e+00 -3.344017077988553854e+00
9.332259867257773678e+00 -3.347190771969920764e+00
9.412710383354822241e+00 -3.369051505051388951e+00
9.493160899451872581e+00 -3.383410171246804765e+00
9.573611415548921144e+00 -3.382534124549064103e+00
9.654061931645971484e+00 -3.401842914167577892e+00
9.734512447743021823e+00 -3.423821719077567494e+00
9.814962963840072163e+00 -3.430025091780455337e+00
9.895413479937120727e+00 -3.425271386410686070e+00
9.975863996034171066e+00 -3.426039853398704427e+00
1.005631451213121963e+01 -3.411486245996600442e+00
1.013676502822827175e+01 -3.409891197339596225e+00
1.021721554432532031e+01 -3.390788188138621262e+00
1.029766606042237065e+01 -3.369267606770168122e+00
