0.000000000000000000e+00 -1.549019599857431873e-01
8.045051609704977069e-02 -1.891831777458286012e-01
1.609010321940995414e-01 -5.001510998126462715e-01
2.413515482911492982e-01 -1.221745886108062562e+00
3.218020643881990828e-01 -1.867760294802749854e+00
4.022525804852488118e-01 -2.700794290085494431e+00
4.827030965822985964e-01 -3.061681959288692578e+00
5.631536126793483810e-01 -3.203921748069965325e+00
6.436041287763981655e-01 -3.411687327450743545e+00
7.240546448734478391e-01 -3.563335805207794582e+00
8.045051609704976237e-01 -3.582765249867212454e+00
8.849556770675472972e-01 -3.648884962561174561e+00
9.654061931645971928e-01 -3.786142886031580002e+00
1.045856709261647088e+00 -3.922760448043011383e+00
1.126307225358696762e+00 -3.977693941150208357e+00
1.206757741455746435e+00 -3.929600082693716079e+00
1.287208257552796331e+00 -3.813847502794736499e+00
1.367658773649846005e+00 -3.698040754915675521e+00
1.448109289746895678e+00 -3.621854714997192026e+00
1.528559805843945352e+00 -3.592519737166735005e+00
1.609010321940995247e+00 -3.586802959639840083e+00
1.689460838038045143e+00 -3.539310348942490414e+00
1.769911354135094594e+00 -3.406807483256327984e+00
1.850361870232144490e+00 -3.287724088268184186e+00
1.930812386329194386e+00 -3.195897774763196253e+00
2.011262902426244281e+00 -3.173664248475303040e+00
2.091713418523294177e+00 -3.205176238440392122e+00
2.172163934620343628e+00 -3.225208618639645142e+00
2.252614450717393524e+00 -3.183657034112048922e+00
2.333064966814443419e+00 -3.121668891987927186e+00
2.413515482911492871e+00 -3.091140479218824844e+00
2.493965999008542767e+00 -3.089873239047785880e+00
2.574416515105592662e+00 -3.144359268407013186e+00
2.654867031202642558e+00 -3.214026549619825701e+00
2.735317547299692009e+00 -3.229822133606664813e+00
2.815768063396741905e+00 -3.249039042564199065e+00
2.896218579493791356e+00 -3.308037224335862003e+00
2.976669095590841252e+00 -3.323699002457270346e+00
3.057119611687890703e+00 -3.315394870685389517e+00
3.137570127784940599e+00 -3.329891597068947107e+00
3.218020643881990495e+00 -3.308538889781907244e+00
3.298471159979039946e+00 -3.293269263415548487e+00
3.378921676076090286e+00 -3.287621985286502735e+00
3.459372192173139737e+00 -3.290155853736016045e+00
3.539822708270189189e+00 -3.294209515389404874e+00
3.620273224367239528e+00 -3.316276046069080330e+00
3.700723740464288980e+00 -3.314286483150941098e+00
3.781174256561339320e+00 -3.285444832597863130e+00
3.861624772658388771e+00 -3.245169898623742277e+00
3.942075288755438223e+00 -3.206550233959323926e+00
4.022525804852488562e+00 -3.177135481367227232e+00
4.102976320949538014e+00 -3.168054287551265613e+00
4.183426837046588354e+00 -3.155398502335075239e+00
4.263877353143637805e+00 -3.171855572099244291e+00
4.344327869240687257e+00 -3.204076148381853617e+00
4.424778385337737596e+00 -3.221089283678287618e+00
4.505228901434787048e+00 -3.236730410338745312e+00
4.585679417531836499e+00 -3.260042682491505861e+00
4.666129933628886839e+00 -3.285146861104788929e+00
4.746580449725936290e+00 -3.278107082262546434e+00
4.827030965822985742e+00 -3.257893198653839750e+00
4.907481481920036082e+00 -3.262921668072189529e+00
4.987931998017085533e+00 -3.288784749377470451e+00
5.068382514114135873e+00 -3.288225025617262265e+00
5.148833030211185324e+00 -3.265119286542846666e+00
5.229283546308234776e+00 -3.248873497638950614e+00
5.309734062405285115e+00 -3.237431496651852481e+00
5.390184578502334567e+00 -3.217967700108144147e+00
5.470635094599384018e+00 -3.217762701878334131e+00
5.551085610696433470e+00 -3.232426408101033211e+00
5.631536126793483810e+00 -3.198313331521213332e+00
5.711986642890533261e+00 -3.171344341897254449e+00
5.792437158987582713e+00 -3.197326264582301736e+00
5.872887675084633052e+00 -3.224614364342603068e+00
5.953338191181682504e+00 -3.236472693125456157e+00
6.033788707278731955e+00 -3.261506423889543260e+00
6.114239223375781407e+00 -3.289104851349955450e+00
6.194689739472831747e+00 -3.325073047857487918e+00
6.275140255569881198e+00 -3.354061166970540242e+00
6.355590771666931538e+00 -3.353393893729498476e+00
6.436041287763980989e+00 -3.329410083673910670e+00
6.516491803861030441e+00 -3.322846925201994761e+00
6.596942319958079892e+00 -3.321523621392710179e+00
6.677392836055131120e+00 -3.304850484277577660e+00
6.757843352152180572e+00 -3.303790334380708682e+00
6.838293868249230023e+00 -3.324693683698285440e+00
6.918744384346279475e+00 -3.330937054855545032e+00
6.999194900443328926e+00 -3.305893431159094398e+00
7.079645416540378378e+00 -3.287192391408868986e+00
7.160095932637429605e+00 -3.296766486864280310e+00
7.240546448734479057e+00 -3.292374375509250939e+00
7.320996964831528508e+00 -3.279648081458793829e+00
7.401447480928577960e+00 -3.291094442871401071e+00
7.481897997025627411e+00 -3.311563970542958479e+00
7.562348513122678639e+00 -3.327065162717693259e+00
7.642799029219728091e+00 -3.310179833166022156e+00
7.723249545316777542e+00 -3.291540160429051731e+00
7.803700061413826994e+00 -3.294499396426760374e+00
7.884150577510876445e+00 -3.316789134595468980e+00
7.964601093607927673e+00 -3.333490293225505052e+00
8.045051609704977125e+00 -3.324978287275060840e+00
8.125502125802025688e+00 -3.324780304956929999e+00
8.205952641899076028e+00 -3.321830614887553601e+00
8.286403157996124591e+00 -3.347990093316004057e+00
8.366853674093176707e+00 -3.360136974834593282e+00
8.447304190190225270e+00 -3.350928748090921783e+00
8.527754706287275610e+00 -3.351839857076008400e+00
8.608205222384324173e+00 -3.361341016419294725e+00
8.688655738481374513e+00 -3.369140904697911942e+00
8.769106254578423076e+00 -3.358664714337491031e+00
8.849556770675475192e+00 -3.346139064793034024e+00
8.930007286772523756e+00 -3.347348410664599427e+00
9.010457802869574095e+00 -3.357017662487472798e+00
9.090908318966622659e+00 -3.343424485536286905e+00
9.171358835063672998e+00 -3.330895653701555936e+00
9.251809351160723338e+00 -3.338675383817291564e+00
9.332259867257773678e+00 -3.366060207604716137e+00
9.412710383354822241e+00 -3.392636307235194160e+00
9.493160899451872581e+00 -3.391433348286202687e+00
9.573611415548921144e+00 -3.362582252948065786e+00
9.654061931645971484e+00 -3.356209585244048554e+00
9.734512447743021823e+00 -3.385078109092699350e+00
9.814962963840072163e+00 -3.433103992642422941e+00
9.895413479937120727e+00 -3.454983299404543740e+00
9.975863996034171066e+00 -3.462063897696491033e+00
1.005631451213121963e+01 -3.457348521601323998e+00
1.013676502822827175e+01 -3.457103079384038935e+00
1.021721554432532031e+01 -3.465690737819134171e+00
1.029766606042237065e+01 -3.467227280006341950e+00
