0.000000000000000000e+00 -1.549019599857431873e-01
8.045051609704977069e-02 -1.970999088572088775e-01
1.609010321940995414e-01 -4.824151163134388631e-01
2.413515482911492982e-01 -1.159004917740021012e+00
3.218020643881990828e-01 -1.726885558026899359e+00
4.022525804852488118e-01 -2.391330301593235230e+00
4.827030965822985964e-01 -2.986904836504323590e+00
5.631536126793483810e-01 -3.249542458876543805e+00
6.436041287763981655e-01 -3.542282770187998864e+00
7.240546448734478391e-01 -3.721825418764061144e+00
8.045051609704976237e-01 -3.784847115285135732e+00
8.849556770675472972e-01 -3.832557375119872933e+00
9.654061931645971928e-01 -3.910081821586052442e+00
1.045856709261647088e+00 -3.930106328194111764e+00
1.126307225358696762e+00 -3.969365904579276627e+00
1.206757741455746435e+00 -3.962970788625516771e+00
1.287208257552796331e+00 -3.861629341807412796e+00
1.367658773649846005e+00 -3.746251850099571623e+00
1.448109289746895678e+00 -3.675452088409643547e+00
1.528559805843945352e+00 -3.628190683125506855e+00
1.609010321940995247e+00 -3.602622697310504662e+00
1.689460838038045143e+00 -3.569293681850424171e+00
1.769911354135094594e+00 -3.509135985924621171e+00
1.850361870232144490e+00 -3.413923208769405360e+00
1.930812386329194386e+00 -3.270263553097937148e+00
2.011262902426244281e+00 -3.147654307196918744e+00
2.091713418523294177e+00 -3.103419690918995499e+00
2.172163934620343628e+00 -3.101629792333992608e+00
2.252614450717393524e+00 -3.149294582473672222e+00
2.333064966814443419e+00 -3.193736523418930329e+00
2.413515482911492871e+00 -3.201975271180255600e+00
2.493965999008542767e+00 -3.169382334204095653e+00
2.574416515105592662e+00 -3.172793413606426416e+00
2.654867031202642558e+00 -3.220162922294167007e+00
2.735317547299692009e+00 -3.230506670582223183e+00
2.815768063396741905e+00 -3.186824108104441944e+00
2.896218579493791356e+00 -3.154023111549363545e+00
2.976669095590841252e+00 -3.163367692485628435e+00
3.057119611687890703e+00 -3.180795737647315047e+00
3.137570127784940599e+00 -3.195490362038530208e+00
3.218020643881990495e+00 -3.184446364946181163e+00
3.298471159979039946e+00 -3.168142471079772982e+00
3.378921676076090286e+00 -3.180207538037879811e+00
3.459372192173139737e+00 -3.231332260721914373e+00
3.539822708270189189e+00 -3.248759715290427952e+00
3.620273224367239528e+00 -3.224012445955538375e+00
3.700723740464288980e+00 -3.230090094886612917e+00
3.781174256561339320e+00 -3.237894065768031293e+00
3.861624772658388771e+00 -3.271751652475506145e+00
3.942075288755438223e+00 -3.283655045553226959e+00
4.022525804852488562e+00 -3.265848171072421202e+00
4.102976320949538014e+00 -3.239494847275302902e+00
4.183426837046588354e+00 -3.251438420292446008e+00
4.263877353143637805e+00 -3.268278775726748631e+00
4.344327869240687257e+00 -3.252764595946716852e+00
4.424778385337737596e+00 -3.204587713076171962e+00
4.505228901434787048e+00 -3.178875132469911602e+00
4.585679417531836499e+00 -3.212213284368617749e+00
4.666129933628886839e+00 -3.256155043972759788e+00
4.746580449725936290e+00 -3.265393303044323847e+00
4.827030965822985742e+00 -3.265414124929232997e+00
4.907481481920036082e+00 -3.283688800443469002e+00
4.987931998017085533e+00 -3.285482387149322392e+00
5.068382514114135873e+00 -3.275767100082138672e+00
5.148833030211185324e+00 -3.267808150726169369e+00
5.229283546308234776e+00 -3.268694032136869154e+00
5.309734062405285115e+00 -3.293911752665393156e+00
5.390184578502334567e+00 -3.312522223605753435e+00
5.470635094599384018e+00 -3.313362283697935950e+00
5.551085610696433470e+00 -3.294541210658853192e+00
5.631536126793483810e+00 -3.271378221291247890e+00
5.711986642890533261e+00 -3.253689715681937322e+00
5.792437158987582713e+00 -3.256075850553858508e+00
5.872887675084633052e+00 -3.261729447722434116e+00
5.953338191181682504e+00 -3.287058336537790115e+00
6.033788707278731955e+00 -3.286581209903893352e+00
6.114239223375781407e+00 -3.271635856111648533e+00
6.194689739472831747e+00 -3.286193115976467904e+00
6.275140255569881198e+00 -3.303318197553868796e+00
6.355590771666931538e+00 -3.310114312917038060e+00
6.436041287763980989e+00 -3.301238465611018302e+00
6.516491803861030441e+00 -3.307636638922287986e+00
6.596942319958079892e+00 -3.305838447811016323e+00
6.677392836055131120e+00 -3.295285174380825577e+00
6.757843352152180572e+00 -3.276842148522185916e+00
6.838293868249230023e+00 -3.259647938500838560e+00
6.918744384346279475e+00 -3.240097599086864122e+00
6.999194900443328926e+00 -3.246871821683087855e+00
7.079645416540378378e+00 -3.271481757532455958e+00
7.160095932637429605e+00 -3.305009553861353755e+00
7.240546448734479057e+00 -3.309764165125772539e+00
7.320996964831528508e+00 -3.295041992730001201e+00
7.401447480928577960e+00 -3.290316380891354697e+00
7.481897997025627411e+00 -3.332250571643419867e+00
7.562348513122678639e+00 -3.364956803238959626e+00
7.642799029219728091e+00 -3.348365500941625772e+00
7.723249545316777542e+00 -3.306821666666057258e+00
7.803700061413826994e+00 -3.297997126456362338e+00
7.884150577510876445e+00 -3.339415415286193234e+00
7.964601093607927673e+00 -3.386211797229154108e+00
8.045051609704977125e+00 -3.406764130230159893e+00
8.125502125802025688e+00 -3.399450538998023852e+00
8.205952641899076028e+00 -3.355332702398458711e+00
8.286403157996124591e+00 -3.322822566604798578e+00
8.366853674093176707e+00 -3.342560509986272077e+00
8.447304190190225270e+00 -3.391249946247202551e+00
8.527754706287275610e+00 -3.444545925079750326e+00
8.608205222384324173e+00 -3.439481803816546446e+00
8.688655738481374513e+00 -3.406701437521716613e+00
8.769106254578423076e+00 -3.379410651127680243e+00
8.849556770675475192e+00 -3.378877078398852429e+00
8.930007286772523756e+00 -3.398715537914498874e+00
9.010457802869574095e+00 -3.410580727682066104e+00
9.090908318966622659e+00 -3.417328025126508351e+00
9.171358835063672998e+00 -3.417172389778378783e+00
9.251809351160723338e+00 -3.392446170988239196e+00
9.332259867257773678e+00 -3.369074939787027212e+00
9.412710383354822241e+00 -3.363878826648328157e+00
9.493160899451872581e+00 -3.378421000458345702e+00
9.573611415548921144e+00 -3.364180438082722269e+00
9.654061931645971484e+00 -3.358465774748736088e+00
9.734512447743021823e+00 -3.374440143042996887e+00
9.814962963840072163e+00 -3.381771398739604972e+00
9.895413479937120727e+00 -3.391868931320078495e+00
9.975863996034171066e+00 -3.392148906161347011e+00
1.005631451213121963e+01 -3.394871705504605153e+00
1.013676502822827175e+01 -3.409007532095387205e+00
1.021721554432532031e+01 -3.418885562247953480e+00
1.029766606042237065e+01 -3.411531637387561489e+00
