0.000000000000000000e+00 -1.549019599857431873e-01
8.045051609704977069e-02 -3.632908331156900483e-01
1.609010321940995414e-01 -9.296216170549241875e-01
2.413515482911492982e-01 -2.151164741175364714e+00
3.218020643881990828e-01 -3.169320637117160278e+00
4.022525804852488118e-01 -4.794567606142440042e+00
4.827030965822985964e-01 -5.892266328600138436e+00
5.631536126793483810e-01 -6.136961136722147714e+00
6.436041287763981655e-01 -6.596307617557287450e+00
7.240546448734478391e-01 -7.104484908509021146e+00
8.045051609704976237e-01 -7.515019641829843167e+00
8.849556770675472972e-01 -7.727952416992481588e+00
9.654061931645971928e-01 -7.696961655816043191e+00
1.045856709261647088e+00 -7.577977930537466378e+00
1.126307225358696762e+00 -7.576143314927025862e+00
1.206757741455746435e+00 -7.565668337416196820e+00
1.287208257552796331e+00 -7.460566288787143563e+00
1.367658773649846005e+00 -7.382206730739015121e+00
1.448109289746895678e+00 -7.296979740919706359e+00
1.528559805843945352e+00 -7.209302802829457235e+00
1.609010321940995247e+00 -7.100056760030142300e+00
1.689460838038045143e+00 -6.933893616342626132e+00
1.769911354135094594e+00 -6.733378052215654108e+00
1.850361870232144490e+00 -6.567832277460860624e+00
1.930812386329194386e+00 -6.527888785997322252e+00
2.011262902426244281e+00 -6.527621647889749745e+00
2.091713418523294177e+00 -6.408507709949375908e+00
2.172163934620343628e+00 -6.311190814996004761e+00
2.252614450717393524e+00 -6.257656145094973255e+00
2.333064966814443419e+00 -6.276002830872917215e+00
2.413515482911492871e+00 -6.348165361134246787e+00
2.493965999008542767e+00 -6.384100962853507255e+00
2.574416515105592662e+00 -6.366386824769322494e+00
2.654867031202642558e+00 -6.292131281274203403e+00
2.735317547299692009e+00 -6.333012808145142891e+00
2.815768063396741905e+00 -6.472107859935563035e+00
2.896218579493791356e+00 -6.513721724424788917e+00
2.976669095590841252e+00 -6.398454590265338915e+00
3.057119611687890703e+00 -6.293866321376076378e+00
3.137570127784940599e+00 -6.338400758375501987e+00
3.218020643881990495e+00 -6.455762422103459741e+00
3.298471159979039946e+00 -6.465251791907055789e+00
3.378921676076090286e+00 -6.337889627964444550e+00
3.459372192173139737e+00 -6.303977202270621305e+00
3.539822708270189189e+00 -6.342472939856189207e+00
3.620273224367239528e+00 -6.440067320844605980e+00
3.700723740464288980e+00 -6.464460180217403540e+00
3.781174256561339320e+00 -6.488611628595105429e+00
3.861624772658388771e+00 -6.490107413813020365e+00
3.942075288755438223e+00 -6.498211700197895624e+00
4.022525804852488562e+00 -6.460854997072417838e+00
4.102976320949538014e+00 -6.458126043460491239e+00
4.183426837046588354e+00 -6.540049754914429414e+00
4.263877353143637805e+00 -6.570072480354674838e+00
4.344327869240687257e+00 -6.555935987949894184e+00
4.424778385337737596e+00 -6.572918132686574211e+00
4.505228901434787048e+00 -6.523040657963387723e+00
4.585679417531836499e+00 -6.553141650230713822e+00
4.666129933628886839e+00 -6.622053363443544782e+00
4.746580449725936290e+00 -6.617688587130340139e+00
4.827030965822985742e+00 -6.486776946263446142e+00
4.907481481920036082e+00 -6.459719790987810129e+00
4.987931998017085533e+00 -6.538285857349302788e+00
5.068382514114135873e+00 -6.606796225569194547e+00
5.148833030211185324e+00 -6.562522359979618969e+00
5.229283546308234776e+00 -6.561283773658384888e+00
5.309734062405285115e+00 -6.557536924520277033e+00
5.390184578502334567e+00 -6.618338103965272445e+00
5.470635094599384018e+00 -6.658900223506629246e+00
5.551085610696433470e+00 -6.656410342268265445e+00
5.631536126793483810e+00 -6.630079594858576897e+00
5.711986642890533261e+00 -6.582167702195481418e+00
5.792437158987582713e+00 -6.548974626314389091e+00
5.872887675084633052e+00 -6.493777107044793162e+00
5.953338191181682504e+00 -6.469406303326704410e+00
6.033788707278731955e+00 -6.515422602987957390e+00
6.114239223375781407e+00 -6.570519645176164936e+00
6.194689739472831747e+00 -6.614119221254921577e+00
6.275140255569881198e+00 -6.578756886569914641e+00
6.355590771666931538e+00 -6.574421552943721103e+00
6.436041287763980989e+00 -6.628191404047674595e+00
6.516491803861030441e+00 -6.643693184014977327e+00
6.596942319958079892e+00 -6.624038835997264840e+00
6.677392836055131120e+00 -6.635277886897365640e+00
6.757843352152180572e+00 -6.628723659457424588e+00
6.838293868249230023e+00 -6.596904772333368250e+00
6.918744384346279475e+00 -6.548785466211069384e+00
6.999194900443328926e+00 -6.555336236356041013e+00
7.079645416540378378e+00 -6.603190926368745828e+00
7.160095932637429605e+00 -6.644135700590624083e+00
7.240546448734479057e+00 -6.663023658594150689e+00
7.320996964831528508e+00 -6.689631919365644386e+00
7.401447480928577960e+00 -6.724943426500518129e+00
7.481897997025627411e+00 -6.731839404398296089e+00
7.562348513122678639e+00 -6.714545501225706481e+00
7.642799029219728091e+00 -6.686841579957645720e+00
7.723249545316777542e+00 -6.655769902842303409e+00
7.803700061413826994e+00 -6.667456501850354655e+00
7.884150577510876445e+00 -6.724320802477468106e+00
7.964601093607927673e+00 -6.720700715663978642e+00
8.045051609704977125e+00 -6.657940160951754116e+00
8.125502125802025688e+00 -6.660226257717233089e+00
8.205952641899076028e+00 -6.673547359517626454e+00
8.286403157996124591e+00 -6.690640635215207688e+00
8.366853674093176707e+00 -6.727122745918959978e+00
8.447304190190225270e+00 -6.744796805191129785e+00
8.527754706287275610e+00 -6.720561405873018757e+00
8.608205222384324173e+00 -6.741690812652003650e+00
8.688655738481374513e+00 -6.752083501627831552e+00
8.769106254578423076e+00 -6.785620378740789604e+00
8.849556770675475192e+00 -6.825192398702076169e+00
8.930007286772523756e+00 -6.834014619674982249e+00
9.010457802869574095e+00 -6.805236188598684066e+00
9.090908318966622659e+00 -6.782988405701113166e+00
9.171358835063672998e+00 -6.802570365091353821e+00
9.251809351160723338e+00 -6.810965719397847451e+00
9.332259867257773678e+00 -6.826715442429306613e+00
9.412710383354822241e+00 -6.842384598503050697e+00
9.493160899451872581e+00 -6.838403233027956496e+00
9.573611415548921144e+00 -6.828500613248987605e+00
9.654061931645971484e+00 -6.814800907493353321e+00
9.734512447743021823e+00 -6.798845796714808820e+00
9.814962963840072163e+00 -6.815210110684652989e+00
9.895413479937120727e+00 -6.808852167057672489e+00
9.975863996034171066e+00 -6.784127808724299769e+00
1.005631451213121963e+01 -6.825642156032863284e+00
1.013676502822827175e+01 -6.922991302451226403e+00
1.021721554432532031e+01 -7.005136079589594722e+00
1.029766606042237065e+01 -7.030428909979906216e+00
