0.000000000000000000e+00 -1.549019599857431873e-01
8.045051609704977069e-02 -1.959027873185082147e-01
1.609010321940995414e-01 -4.914724282759324603e-01
2.413515482911492982e-01 -1.119989117200468787e+00
3.218020643881990828e-01 -1.668509761854961360e+00
4.022525804852488118e-01 -2.483971953178243375e+00
4.827030965822985964e-01 -2.895881107433575963e+00
5.631536126793483810e-01 -2.851342397650670435e+00
6.436041287763981655e-01 -3.002952907165270524e+00
7.240546448734478391e-01 -3.307422704805047964e+00
8.045051609704976237e-01 -3.541154439323538572e+00
8.849556770675472972e-01 -3.607766422905875903e+00
9.654061931645971928e-01 -3.640651641124023730e+00
1.045856709261647088e+00 -3.673677552759954779e+00
1.126307225358696762e+00 -3.689630189422702156e+00
1.206757741455746435e+00 -3.681670123890314894e+00
1.287208257552796331e+00 -3.660877622851907098e+00
1.367658773649846005e+00 -3.601821840401030705e+00
1.448109289746895678e+00 -3.573504860168354114e+00
1.528559805843945352e+00 -3.634645959125732961e+00
1.609010321940995247e+00 -3.675114293984542257e+00
1.689460838038045143e+00 -3.578734209934671728e+00
1.769911354135094594e+00 -3.450672539619900281e+00
1.850361870232144490e+00 -3.368868599286330756e+00
1.930812386329194386e+00 -3.259735346453218607e+00
2.011262902426244281e+00 -3.149964871513855069e+00
2.091713418523294177e+00 -3.104986502514812230e+00
2.172163934620343628e+00 -3.152441082858207899e+00
2.252614450717393524e+00 -3.241031706180407035e+00
2.333064966814443419e+00 -3.279980983962079044e+00
2.413515482911492871e+00 -3.244724001745557640e+00
2.493965999008542767e+00 -3.190367484682643529e+00
2.574416515105592662e+00 -3.192638289143002073e+00
2.654867031202642558e+00 -3.228939968454594744e+00
2.735317547299692009e+00 -3.277718127011946869e+00
2.815768063396741905e+00 -3.267972012604914767e+00
2.896218579493791356e+00 -3.209264709928768333e+00
2.976669095590841252e+00 -3.169554099800245606e+00
3.057119611687890703e+00 -3.180101829483525933e+00
3.137570127784940599e+00 -3.214734799472508620e+00
3.218020643881990495e+00 -3.246884420366745960e+00
3.298471159979039946e+00 -3.254759173101888781e+00
3.378921676076090286e+00 -3.235337712959046375e+00
3.459372192173139737e+00 -3.251719133411825169e+00
3.539822708270189189e+00 -3.300520778144492073e+00
3.620273224367239528e+00 -3.310076607828888129e+00
3.700723740464288980e+00 -3.270473083521522106e+00
3.781174256561339320e+00 -3.270351880402657230e+00
3.861624772658388771e+00 -3.262890897980585514e+00
3.942075288755438223e+00 -3.235814513371767287e+00
4.022525804852488562e+00 -3.237462143588173191e+00
4.102976320949538014e+00 -3.267146967115808209e+00
4.183426837046588354e+00 -3.280921750517746815e+00
4.263877353143637805e+00 -3.293089066298758194e+00
4.344327869240687257e+00 -3.322984304116760157e+00
4.424778385337737596e+00 -3.343417043157870250e+00
4.505228901434787048e+00 -3.339911588830977163e+00
4.585679417531836499e+00 -3.315435053487472583e+00
4.666129933628886839e+00 -3.328618352991171481e+00
4.746580449725936290e+00 -3.325602977170039498e+00
4.827030965822985742e+00 -3.309568356976138492e+00
4.907481481920036082e+00 -3.298195308071245169e+00
4.987931998017085533e+00 -3.250963759690324917e+00
5.068382514114135873e+00 -3.220381504424473906e+00
5.148833030211185324e+00 -3.242747586680462035e+00
5.229283546308234776e+00 -3.277046856804940678e+00
5.309734062405285115e+00 -3.294843404401755826e+00
5.390184578502334567e+00 -3.260962034542107091e+00
5.470635094599384018e+00 -3.237138998370196585e+00
5.551085610696433470e+00 -3.244820444749346500e+00
5.631536126793483810e+00 -3.277430998094584158e+00
5.711986642890533261e+00 -3.319086374283067187e+00
5.792437158987582713e+00 -3.343636880409059930e+00
5.872887675084633052e+00 -3.298984095260854232e+00
5.953338191181682504e+00 -3.259037513210829129e+00
6.033788707278731955e+00 -3.246749901778671621e+00
6.114239223375781407e+00 -3.273578776149801417e+00
6.194689739472831747e+00 -3.303234184664200601e+00
6.275140255569881198e+00 -3.310262112689162262e+00
6.355590771666931538e+00 -3.303638181495387016e+00
6.436041287763980989e+00 -3.308839778341531535e+00
6.516491803861030441e+00 -3.327948995226731821e+00
6.596942319958079892e+00 -3.339150628914565822e+00
6.677392836055131120e+00 -3.350646457903738273e+00
6.757843352152180572e+00 -3.375477632579309439e+00
6.838293868249230023e+00 -3.374037880474695328e+00
6.918744384346279475e+00 -3.370408461626437813e+00
6.999194900443328926e+00 -3.372846478686119642e+00
7.079645416540378378e+00 -3.363753610896507151e+00
7.160095932637429605e+00 -3.347417567614324518e+00
7.240546448734479057e+00 -3.350969218675021288e+00
7.320996964831528508e+00 -3.346075821701071540e+00
7.401447480928577960e+00 -3.326646165963074164e+00
7.481897997025627411e+00 -3.317324412293241043e+00
7.562348513122678639e+00 -3.325121962357666661e+00
7.642799029219728091e+00 -3.328557998415820673e+00
7.723249545316777542e+00 -3.335130056108154495e+00
7.803700061413826994e+00 -3.327022794535447581e+00
7.884150577510876445e+00 -3.315084987280029871e+00
7.964601093607927673e+00 -3.328646138759140172e+00
8.045051609704977125e+00 -3.337038318405727733e+00
8.125502125802025688e+00 -3.359899233555612597e+00
8.205952641899076028e+00 -3.363170823420580380e+00
8.286403157996124591e+00 -3.394647215323950640e+00
8.366853674093176707e+00 -3.432439501535261339e+00
8.447304190190225270e+00 -3.457968477910812410e+00
8.527754706287275610e+00 -3.454681572521038024e+00
8.608205222384324173e+00 -3.451827346389577666e+00
8.688655738481374513e+00 -3.460682495605008402e+00
8.769106254578423076e+00 -3.466605233428393440e+00
8.849556770675475192e+00 -3.448629842583475824e+00
8.930007286772523756e+00 -3.433733413289066672e+00
9.010457802869574095e+00 -3.434848174589273828e+00
9.090908318966622659e+00 -3.414567948676925369e+00
9.171358835063672998e+00 -3.391754971293431176e+00
9.251809351160723338e+00 -3.394005191374408703e+00
9.332259867257773678e+00 -3.410295898134411807e+00
9.412710383354822241e+00 -3.438270540080809123e+00
9.493160899451872581e+00 -3.447022838791449217e+00
9.573611415548921144e+00 -3.462741116726085977e+00
9.654061931645971484e+00 -3.477215892936765584e+00
9.734512447743021823e+00 -3.488136883730668547e+00
9.814962963840072163e+00 -3.457631745929727884e+00
9.895413479937120727e+00 -3.412009282504194996e+00
9.975863996034171066e+00 -3.405931487468626617e+00
1.005631451213121963e+01 -3.437561500143441862e+00
1.013676502822827175e+01 -3.454835436849892361e+00
1.021721554432532031e+01 -3.437621095192697762e+00
1.029766606042237065e+01 -3.436186685718373379e+00
