0.000000000000000000e+00 -1.549019599857431873e-01
8.045051609704977069e-02 -2.046398526605633095e-01
1.609010321940995414e-01 -5.796703556326917584e-01
2.413515482911492982e-01 -1.399846646121933658e+00
3.218020643881990828e-01 -1.975290931432829522e+00
4.022525804852488118e-01 -2.767791067890523315e+00
4.827030965822985964e-01 -3.147751185916747296e+00
5.631536126793483810e-01 -3.256179756309551809e+00
6.436041287763981655e-01 -3.402835687063055392e+00
7.240546448734478391e-01 -3.561717587110423189e+00
8.045051609704976237e-01 -3.645416155009436832e+00
8.849556770675472972e-01 -3.772583973651650879e+00
9.654061931645971928e-01 -3.928544079896242103e+00
1.045856709261647088e+00 -3.987984851253852270e+00
1.126307225358696762e+00 -3.993714431573783141e+00
1.206757741455746435e+00 -3.961839757610599033e+00
1.287208257552796331e+00 -3.834413338610041855e+00
1.367658773649846005e+00 -3.742441304625882648e+00
1.448109289746895678e+00 -3.690611055348377967e+00
1.528559805843945352e+00 -3.680887386662680338e+00
1.609010321940995247e+00 -3.633296306081629012e+00
1.689460838038045143e+00 -3.572046856241307911e+00
1.769911354135094594e+00 -3.526511333721577657e+00
1.850361870232144490e+00 -3.470408747887884005e+00
1.930812386329194386e+00 -3.412958278901698783e+00
2.011262902426244281e+00 -3.352286987886479608e+00
2.091713418523294177e+00 -3.311721948197323240e+00
2.172163934620343628e+00 -3.219126372685748638e+00
2.252614450717393524e+00 -3.149668789696494997e+00
2.333064966814443419e+00 -3.168227858070678860e+00
2.413515482911492871e+00 -3.216486690219729550e+00
2.493965999008542767e+00 -3.256333359873622602e+00
2.574416515105592662e+00 -3.227569762073903448e+00
2.654867031202642558e+00 -3.163210407638175070e+00
2.735317547299692009e+00 -3.133670977656842993e+00
2.815768063396741905e+00 -3.209029111086384667e+00
2.896218579493791356e+00 -3.271926877667166167e+00
2.976669095590841252e+00 -3.289715832226128178e+00
3.057119611687890703e+00 -3.292041113877339331e+00
3.137570127784940599e+00 -3.298451555167255300e+00
3.218020643881990495e+00 -3.296756136085470690e+00
3.298471159979039946e+00 -3.249524785111776559e+00
3.378921676076090286e+00 -3.206229720647295611e+00
3.459372192173139737e+00 -3.208352435546694803e+00
3.539822708270189189e+00 -3.229093621922262791e+00
3.620273224367239528e+00 -3.207549711278389726e+00
3.700723740464288980e+00 -3.172986819741721920e+00
3.781174256561339320e+00 -3.173628365457886957e+00
3.861624772658388771e+00 -3.203796369518631337e+00
3.942075288755438223e+00 -3.202905675534672536e+00
4.022525804852488562e+00 -3.229296239208420349e+00
4.102976320949538014e+00 -3.273910968637486540e+00
4.183426837046588354e+00 -3.298009903736797810e+00
4.263877353143637805e+00 -3.314613089649809385e+00
4.344327869240687257e+00 -3.286006946206597501e+00
4.424778385337737596e+00 -3.258209846923226127e+00
4.505228901434787048e+00 -3.236490735019293297e+00
4.585679417531836499e+00 -3.275201532195887832e+00
4.666129933628886839e+00 -3.286159522381180587e+00
4.746580449725936290e+00 -3.241971767727142684e+00
4.827030965822985742e+00 -3.186433378842821629e+00
4.907481481920036082e+00 -3.190562286788507063e+00
4.987931998017085533e+00 -3.223534637520363066e+00
5.068382514114135873e+00 -3.231464838217783520e+00
5.148833030211185324e+00 -3.245612690134136891e+00
5.229283546308234776e+00 -3.266810938584471913e+00
5.309734062405285115e+00 -3.252260072879195718e+00
5.390184578502334567e+00 -3.247470947759718563e+00
5.470635094599384018e+00 -3.277919209759003305e+00
5.551085610696433470e+00 -3.336597584356162383e+00
5.631536126793483810e+00 -3.374193891970562298e+00
5.711986642890533261e+00 -3.346211304123023034e+00
5.792437158987582713e+00 -3.302877870286611284e+00
5.872887675084633052e+00 -3.301981204306073447e+00
5.953338191181682504e+00 -3.304135163137106979e+00
6.033788707278731955e+00 -3.273068736843726345e+00
6.114239223375781407e+00 -3.243853275859265750e+00
6.194689739472831747e+00 -3.233957515564935381e+00
6.275140255569881198e+00 -3.259838997811861816e+00
6.355590771666931538e+00 -3.326789884924667984e+00
6.436041287763980989e+00 -3.340492746171925820e+00
6.516491803861030441e+00 -3.302260247109403135e+00
6.596942319958079892e+00 -3.263606249374038981e+00
6.677392836055131120e+00 -3.265130640654044125e+00
6.757843352152180572e+00 -3.290994233210199571e+00
6.838293868249230023e+00 -3.309613968380763716e+00
6.918744384346279475e+00 -3.294169335600442228e+00
6.999194900443328926e+00 -3.267124191644899422e+00
7.079645416540378378e+00 -3.245709994435310275e+00
7.160095932637429605e+00 -3.270562138271090546e+00
7.240546448734479057e+00 -3.331509455351202131e+00
7.320996964831528508e+00 -3.368985939957320319e+00
7.401447480928577960e+00 -3.374345045551383038e+00
7.481897997025627411e+00 -3.373016366723912807e+00
7.562348513122678639e+00 -3.385233523990403448e+00
7.642799029219728091e+00 -3.412049470958941289e+00
7.723249545316777542e+00 -3.407615203117273506e+00
7.803700061413826994e+00 -3.387817351951597722e+00
7.884150577510876445e+00 -3.378380928280270368e+00
7.964601093607927673e+00 -3.369986105042598989e+00
8.045051609704977125e+00 -3.359226162105970914e+00
8.125502125802025688e+00 -3.345766442426192366e+00
8.205952641899076028e+00 -3.315426803069728479e+00
8.286403157996124591e+00 -3.318981746935340649e+00
8.366853674093176707e+00 -3.349518629579489648e+00
8.447304190190225270e+00 -3.354249953051727573e+00
8.527754706287275610e+00 -3.337249365853954597e+00
8.608205222384324173e+00 -3.333780711584029444e+00
8.688655738481374513e+00 -3.349476618139982431e+00
8.769106254578423076e+00 -3.365406322772797054e+00
8.849556770675475192e+00 -3.369743529275352145e+00
8.930007286772523756e+00 -3.376010615873718201e+00
9.010457802869574095e+00 -3.390856465770156536e+00
9.090908318966622659e+00 -3.382277131908177914e+00
9.171358835063672998e+00 -3.359536864932170630e+00
9.251809351160723338e+00 -3.361264894934739900e+00
9.332259867257773678e+00 -3.397941588374300714e+00
9.412710383354822241e+00 -3.442891155704253858e+00
9.493160899451872581e+00 -3.458254160982805470e+00
9.573611415548921144e+00 -3.450638536604449857e+00
9.654061931645971484e+00 -3.421697330438572937e+00
9.734512447743021823e+00 -3.406318902604330567e+00
9.814962963840072163e+00 -3.427292114308418292e+00
9.895413479937120727e+00 -3.439177972426016527e+00
9.975863996034171066e+00 -3.447885780178962190e+00
1.005631451213121963e+01 -3.443253449127717580e+00
1.013676502822827175e+01 -3.444683840856469281e+00
1.021721554432532031e+01 -3.446013580994102821e+00
1.029766606042237065e+01 -3.446013149553957877e+00
