0.000000000000000000e+00 -1.549019599857431873e-01
8.045051609704977069e-02 -2.022602709885698291e-01
1.609010321940995414e-01 -5.104652056729349630e-01
2.413515482911492982e-01 -1.187073488127363685e+00
3.218020643881990828e-01 -1.426592528058347797e+00
4.022525804852488118e-01 -1.411895550952837475e+00
4.827030965822985964e-01 -1.527507685863564335e+00
5.631536126793483810e-01 -1.885184706093498530e+00
6.436041287763981655e-01 -2.322124975654980439e+00
7.240546448734478391e-01 -2.410538874371311646e+00
8.045051609704976237e-01 -2.399480455351434394e+00
8.849556770675472972e-01 -2.496917103357168433e+00
9.654061931645971928e-01 -2.656012670295848199e+00
1.045856709261647088e+00 -2.820555007353058752e+00
1.126307225358696762e+00 -2.903003061080061897e+00
1.206757741455746435e+00 -2.880885912502104240e+00
1.287208257552796331e+00 -2.821898615762292284e+00
1.367658773649846005e+00 -2.792907464204701817e+00
1.448109289746895678e+00 -2.734488813176969568e+00
1.528559805843945352e+00 -2.696055859225994666e+00
1.609010321940995247e+00 -2.719058647074938051e+00
1.689460838038045143e+00 -2.768244382168318918e+00
1.769911354135094594e+00 -2.782842747628437419e+00
1.850361870232144490e+00 -2.771201073711052842e+00
1.930812386329194386e+00 -2.783561810874762621e+00
2.011262902426244281e+00 -2.811476319620195063e+00
2.091713418523294177e+00 -2.770385700924963945e+00
2.172163934620343628e+00 -2.686132623305285350e+00
2.252614450717393524e+00 -2.659328915670890581e+00
2.333064966814443419e+00 -2.707216275944548833e+00
2.413515482911492871e+00 -2.734830328752968498e+00
2.493965999008542767e+00 -2.740094297960122827e+00
2.574416515105592662e+00 -2.745311180727111999e+00
2.654867031202642558e+00 -2.727302808417179314e+00
2.735317547299692009e+00 -2.669015862492537750e+00
2.815768063396741905e+00 -2.632494855651366095e+00
2.896218579493791356e+00 -2.636581505471385700e+00
2.976669095590841252e+00 -2.665670766545763737e+00
3.057119611687890703e+00 -2.675980755851198101e+00
3.137570127784940599e+00 -2.645585714094079055e+00
3.218020643881990495e+00 -2.606893693703841830e+00
3.298471159979039946e+00 -2.585721740567026306e+00
3.378921676076090286e+00 -2.587007047273046201e+00
3.459372192173139737e+00 -2.563964003270374103e+00
3.539822708270189189e+00 -2.551131977787778560e+00
3.620273224367239528e+00 -2.556552429681758110e+00
3.700723740464288980e+00 -2.549533320152113536e+00
3.781174256561339320e+00 -2.547617450676062933e+00
3.861624772658388771e+00 -2.587951988588971464e+00
3.942075288755438223e+00 -2.661327956970575226e+00
4.022525804852488562e+00 -2.693212318937090455e+00
4.102976320949538014e+00 -2.670465694187050598e+00
4.183426837046588354e+00 -2.664260126212593782e+00
4.263877353143637805e+00 -2.693753673286479522e+00
4.344327869240687257e+00 -2.714521605447931751e+00
4.424778385337737596e+00 -2.729077854110416812e+00
4.505228901434787048e+00 -2.705279696123543687e+00
4.585679417531836499e+00 -2.647088538548435732e+00
4.666129933628886839e+00 -2.588658878128675678e+00
4.746580449725936290e+00 -2.574049512838707976e+00
4.827030965822985742e+00 -2.630155897939806309e+00
4.907481481920036082e+00 -2.701275410867193472e+00
4.987931998017085533e+00 -2.721888313629125200e+00
5.068382514114135873e+00 -2.663911556307544171e+00
5.148833030211185324e+00 -2.574796783273399114e+00
5.229283546308234776e+00 -2.537104003892161064e+00
5.309734062405285115e+00 -2.579539749385856950e+00
5.390184578502334567e+00 -2.644099303293462988e+00
5.470635094599384018e+00 -2.678855885632957623e+00
5.551085610696433470e+00 -2.680795625355544498e+00
5.631536126793483810e+00 -2.664269123642804882e+00
5.711986642890533261e+00 -2.635254285218006309e+00
5.792437158987582713e+00 -2.637681303024005608e+00
5.872887675084633052e+00 -2.649768472531111030e+00
5.953338191181682504e+00 -2.642784639204526886e+00
6.033788707278731955e+00 -2.636038656317472473e+00
6.114239223375781407e+00 -2.661167681692158116e+00
6.194689739472831747e+00 -2.707596577440051888e+00
6.275140255569881198e+00 -2.719124788931086112e+00
6.355590771666931538e+00 -2.722559201233968995e+00
6.436041287763980989e+00 -2.709287496261024053e+00
6.516491803861030441e+00 -2.691831507030525206e+00
6.596942319958079892e+00 -2.680286307918439359e+00
6.677392836055131120e+00 -2.652588149376609472e+00
6.757843352152180572e+00 -2.637172689951924998e+00
6.838293868249230023e+00 -2.641765085378771971e+00
6.918744384346279475e+00 -2.675240001624579200e+00
6.999194900443328926e+00 -2.716032524076128496e+00
7.079645416540378378e+00 -2.739641700211246089e+00
7.160095932637429605e+00 -2.748740054449813286e+00
7.240546448734479057e+00 -2.760874629856968188e+00
7.320996964831528508e+00 -2.774516043859150738e+00
7.401447480928577960e+00 -2.769369435517733624e+00
7.481897997025627411e+00 -2.764497575182389255e+00
7.562348513122678639e+00 -2.761898322734301914e+00
7.642799029219728091e+00 -2.767840678570002932e+00
7.723249545316777542e+00 -2.758907209497519109e+00
7.803700061413826994e+00 -2.735266162406404966e+00
7.884150577510876445e+00 -2.709514365679818848e+00
7.964601093607927673e+00 -2.724013164069476023e+00
8.045051609704977125e+00 -2.720416278704852253e+00
8.125502125802025688e+00 -2.676317390650170491e+00
8.205952641899076028e+00 -2.660118914144253388e+00
8.286403157996124591e+00 -2.690460762209773371e+00
8.366853674093176707e+00 -2.744602734822031653e+00
8.447304190190225270e+00 -2.785811479658477197e+00
8.527754706287275610e+00 -2.823000081397393668e+00
8.608205222384324173e+00 -2.822781028815414039e+00
8.688655738481374513e+00 -2.777761933319511378e+00
8.769106254578423076e+00 -2.735554738673645847e+00
8.849556770675475192e+00 -2.729022712162381570e+00
8.930007286772523756e+00 -2.746952320423426297e+00
9.010457802869574095e+00 -2.766438354223381690e+00
9.090908318966622659e+00 -2.764494688567988412e+00
9.171358835063672998e+00 -2.771758149131256399e+00
9.251809351160723338e+00 -2.792768694524605522e+00
9.332259867257773678e+00 -2.805768147350820030e+00
9.412710383354822241e+00 -2.808153633288531292e+00
9.493160899451872581e+00 -2.814574877062804958e+00
9.573611415548921144e+00 -2.828439175835034902e+00
9.654061931645971484e+00 -2.822927322582416743e+00
9.734512447743021823e+00 -2.813979682381267722e+00
9.814962963840072163e+00 -2.826212989465859859e+00
9.895413479937120727e+00 -2.840665933130491538e+00
9.975863996034171066e+00 -2.830633747366509301e+00
1.005631451213121963e+01 -2.789514487435373002e+00
1.013676502822827175e+01 -2.773188474800085235e+00
1.021721554432532031e+01 -2.805617960692018631e+00
1.029766606042237065e+01 -2.826826919057548793e+00
