0.000000000000000000e+00 -1.549019599857431873e-01
8.045051609704977069e-02 -3.880416032199224818e-01
1.609010321940995414e-01 -1.129878588166272291e+00
2.413515482911492982e-01 -2.415423120273965996e+00
3.218020643881990828e-01 -2.498071958003931670e+00
4.022525804852488118e-01 -2.548296427494100680e+00
4.827030965822985964e-01 -2.980725018737966803e+00
5.631536126793483810e-01 -3.723932619381213005e+00
6.436041287763981655e-01 -4.131810898843794710e+00
7.240546448734478391e-01 -4.191211292145835543e+00
8.045051609704976237e-01 -4.341587995146721113e+00
8.849556770675472972e-01 -4.693269514043952206e+00
9.654061931645971928e-01 -5.239145126790548446e+00
1.045856709261647088e+00 -5.639577469068132842e+00
1.126307225358696762e+00 -5.763741213416905040e+00
1.206757741455746435e+00 -5.789928042081842641e+00
1.287208257552796331e+00 -5.625591119711986998e+00
1.367658773649846005e+00 -5.522546149647885372e+00
1.448109289746895678e+00 -5.492862810973280219e+00
1.528559805843945352e+00 -5.433548037484410287e+00
1.609010321940995247e+00 -5.466476887223748804e+00
1.689460838038045143e+00 -5.398978869282662352e+00
1.769911354135094594e+00 -5.216333653214544341e+00
1.850361870232144490e+00 -5.100103051404330401e+00
1.930812386329194386e+00 -5.059803738721804223e+00
2.011262902426244281e+00 -5.137159537288471967e+00
2.091713418523294177e+00 -5.158761395068823141e+00
2.172163934620343628e+00 -5.040873699368569660e+00
2.252614450717393524e+00 -4.947225880489463989e+00
2.333064966814443419e+00 -5.068894917640422548e+00
2.413515482911492871e+00 -5.251754379777341164e+00
2.493965999008542767e+00 -5.324374190784784133e+00
2.574416515105592662e+00 -5.358133237220784828e+00
2.654867031202642558e+00 -5.378664541321649395e+00
2.735317547299692009e+00 -5.379019896164349390e+00
2.815768063396741905e+00 -5.359136925781292859e+00
2.896218579493791356e+00 -5.434241054985242236e+00
2.976669095590841252e+00 -5.497243318977367288e+00
3.057119611687890703e+00 -5.498163357256920847e+00
3.137570127784940599e+00 -5.462845091528294006e+00
3.218020643881990495e+00 -5.339519824515499558e+00
3.298471159979039946e+00 -5.183446747439031554e+00
3.378921676076090286e+00 -5.120651231385453528e+00
3.459372192173139737e+00 -5.146709720670733290e+00
3.539822708270189189e+00 -5.181467742485033057e+00
3.620273224367239528e+00 -5.291008006093851357e+00
3.700723740464288980e+00 -5.348082755217313355e+00
3.781174256561339320e+00 -5.330123208682421065e+00
3.861624772658388771e+00 -5.237279624636964392e+00
3.942075288755438223e+00 -5.173336987936234976e+00
4.022525804852488562e+00 -5.187288338213917882e+00
4.102976320949538014e+00 -5.221177540678363371e+00
4.183426837046588354e+00 -5.199961905802301665e+00
4.263877353143637805e+00 -5.185230262379114663e+00
4.344327869240687257e+00 -5.232181588824031948e+00
4.424778385337737596e+00 -5.258668600782394620e+00
4.505228901434787048e+00 -5.221845423162615241e+00
4.585679417531836499e+00 -5.199333177789667637e+00
4.666129933628886839e+00 -5.172331155672944547e+00
4.746580449725936290e+00 -5.159884158849933122e+00
4.827030965822985742e+00 -5.150770947103936237e+00
4.907481481920036082e+00 -5.254658194600525078e+00
4.987931998017085533e+00 -5.333357805122784789e+00
5.068382514114135873e+00 -5.368269881720316050e+00
5.148833030211185324e+00 -5.340376495403730495e+00
5.229283546308234776e+00 -5.302274666817654136e+00
5.309734062405285115e+00 -5.294846022315546463e+00
5.390184578502334567e+00 -5.316266614891430820e+00
5.470635094599384018e+00 -5.223894690485127335e+00
5.551085610696433470e+00 -5.155357382753908979e+00
5.631536126793483810e+00 -5.137831233634448047e+00
5.711986642890533261e+00 -5.166921137313774892e+00
5.792437158987582713e+00 -5.216291469532451153e+00
5.872887675084633052e+00 -5.233610802984003385e+00
5.953338191181682504e+00 -5.221499692819114635e+00
6.033788707278731955e+00 -5.247799826276115631e+00
6.114239223375781407e+00 -5.262471252240998432e+00
6.194689739472831747e+00 -5.307385712003966027e+00
6.275140255569881198e+00 -5.361480901378536501e+00
6.355590771666931538e+00 -5.406194690889404519e+00
6.436041287763980989e+00 -5.450857462369973483e+00
6.516491803861030441e+00 -5.463343510670163106e+00
6.596942319958079892e+00 -5.395406050970039225e+00
6.677392836055131120e+00 -5.303659602139742191e+00
6.757843352152180572e+00 -5.269767766328746994e+00
6.838293868249230023e+00 -5.286242919679231100e+00
6.918744384346279475e+00 -5.270112082878013915e+00
6.999194900443328926e+00 -5.268024245518006410e+00
7.079645416540378378e+00 -5.306743369001010180e+00
7.160095932637429605e+00 -5.365759123057256552e+00
7.240546448734479057e+00 -5.401224083305821821e+00
7.320996964831528508e+00 -5.404935013573346936e+00
7.401447480928577960e+00 -5.467941858548914347e+00
7.481897997025627411e+00 -5.509077070483106908e+00
7.562348513122678639e+00 -5.499564064423246634e+00
7.642799029219728091e+00 -5.514346683476568423e+00
7.723249545316777542e+00 -5.559069251621600927e+00
7.803700061413826994e+00 -5.607088386930866086e+00
7.884150577510876445e+00 -5.603704468840511765e+00
7.964601093607927673e+00 -5.597128667153793202e+00
8.045051609704977125e+00 -5.616546746853781968e+00
8.125502125802025688e+00 -5.643911561688663703e+00
8.205952641899076028e+00 -5.601523800134804887e+00
8.286403157996124591e+00 -5.527619194421581561e+00
8.366853674093176707e+00 -5.456416171233467338e+00
8.447304190190225270e+00 -5.459504632932983270e+00
8.527754706287275610e+00 -5.512553779829619138e+00
8.608205222384324173e+00 -5.553866098127673290e+00
8.688655738481374513e+00 -5.500591566988674685e+00
8.769106254578423076e+00 -5.473438484630101186e+00
8.849556770675475192e+00 -5.476675344366507048e+00
8.930007286772523756e+00 -5.490740100023581149e+00
9.010457802869574095e+00 -5.532771479253055347e+00
9.090908318966622659e+00 -5.556715460466165268e+00
9.171358835063672998e+00 -5.554902912628296718e+00
9.251809351160723338e+00 -5.481453102788264253e+00
9.332259867257773678e+00 -5.431148984003238311e+00
9.412710383354822241e+00 -5.495378745278176602e+00
9.493160899451872581e+00 -5.602420321659543845e+00
9.573611415548921144e+00 -5.615035475450604885e+00
9.654061931645971484e+00 -5.605976173620809355e+00
9.734512447743021823e+00 -5.625704723548051511e+00
9.814962963840072163e+00 -5.643515511149487018e+00
9.895413479937120727e+00 -5.647538175873942023e+00
9.975863996034171066e+00 -5.659151705546973332e+00
1.005631451213121963e+01 -5.699241386118456099e+00
1.013676502822827175e+01 -5.700760292814528896e+00
1.021721554432532031e+01 -5.680745348964320485e+00
1.029766606042237065e+01 -5.679505062849855790e+00
