0.000000000000000000e+00 -1.549019599857431873e-01
8.045051609704977069e-02 -1.931394111312175477e-01
1.609010321940995414e-01 -5.255363501369685331e-01
2.413515482911492982e-01 -1.168185095496537595e+00
3.218020643881990828e-01 -1.382251043470419383e+00
4.022525804852488118e-01 -1.484438263370366995e+00
4.827030965822985964e-01 -1.650308193980893900e+00
5.631536126793483810e-01 -1.826824879267444857e+00
6.436041287763981655e-01 -2.030697765187664761e+00
7.240546448734478391e-01 -2.202024693580656223e+00
8.045051609704976237e-01 -2.340972498947800684e+00
8.849556770675472972e-01 -2.529288359683671494e+00
9.654061931645971928e-01 -2.657760949301327891e+00
1.045856709261647088e+00 -2.734345421405854015e+00
1.126307225358696762e+00 -2.799863988391899206e+00
1.206757741455746435e+00 -2.822493944280050293e+00
1.287208257552796331e+00 -2.857896450893225193e+00
1.367658773649846005e+00 -2.889276674273837830e+00
1.448109289746895678e+00 -2.846479212846767304e+00
1.528559805843945352e+00 -2.790166903730630032e+00
1.609010321940995247e+00 -2.755935940533387196e+00
1.689460838038045143e+00 -2.732140380884746200e+00
1.769911354135094594e+00 -2.711133749481576594e+00
1.850361870232144490e+00 -2.679028296227778494e+00
1.930812386329194386e+00 -2.641762234150816457e+00
2.011262902426244281e+00 -2.597126288246318637e+00
2.091713418523294177e+00 -2.608516166506039902e+00
2.172163934620343628e+00 -2.653181493394842771e+00
2.252614450717393524e+00 -2.676047393019798548e+00
2.333064966814443419e+00 -2.690355489112610687e+00
2.413515482911492871e+00 -2.685063360309460911e+00
2.493965999008542767e+00 -2.689748456798320753e+00
2.574416515105592662e+00 -2.693638558944359218e+00
2.654867031202642558e+00 -2.689400264993602629e+00
2.735317547299692009e+00 -2.670460717666217398e+00
2.815768063396741905e+00 -2.625033019111516097e+00
2.896218579493791356e+00 -2.563902519448641115e+00
2.976669095590841252e+00 -2.519030775348194418e+00
3.057119611687890703e+00 -2.543780211575152439e+00
3.137570127784940599e+00 -2.601964521825040677e+00
3.218020643881990495e+00 -2.632428562849388864e+00
3.298471159979039946e+00 -2.664879793242874495e+00
3.378921676076090286e+00 -2.666992887800267109e+00
3.459372192173139737e+00 -2.632022208664940077e+00
3.539822708270189189e+00 -2.624902102750592103e+00
3.620273224367239528e+00 -2.617136225874079347e+00
3.700723740464288980e+00 -2.585246877163483781e+00
3.781174256561339320e+00 -2.559847013506022950e+00
3.861624772658388771e+00 -2.542492023579250304e+00
3.942075288755438223e+00 -2.553071066202557304e+00
4.022525804852488562e+00 -2.602211851802887388e+00
4.102976320949538014e+00 -2.643705566056154144e+00
4.183426837046588354e+00 -2.645762947132600296e+00
4.263877353143637805e+00 -2.621163233098401157e+00
4.344327869240687257e+00 -2.622677812703777089e+00
4.424778385337737596e+00 -2.655276673312601865e+00
4.505228901434787048e+00 -2.686733713957977887e+00
4.585679417531836499e+00 -2.684637598982533291e+00
4.666129933628886839e+00 -2.653493597427432515e+00
4.746580449725936290e+00 -2.625674952842799836e+00
4.827030965822985742e+00 -2.648141135327637397e+00
4.907481481920036082e+00 -2.693912781100035403e+00
4.987931998017085533e+00 -2.695550487482214042e+00
5.068382514114135873e+00 -2.707472211746911217e+00
5.148833030211185324e+00 -2.747194034615023650e+00
5.229283546308234776e+00 -2.777228803805845470e+00
5.309734062405285115e+00 -2.745772989046113555e+00
5.390184578502334567e+00 -2.668117733232841182e+00
5.470635094599384018e+00 -2.611020241417364662e+00
5.551085610696433470e+00 -2.580806341870216070e+00
5.631536126793483810e+00 -2.574661437843857037e+00
5.711986642890533261e+00 -2.600843670134087127e+00
5.792437158987582713e+00 -2.625834927538917007e+00
5.872887675084633052e+00 -2.641555121076776480e+00
5.953338191181682504e+00 -2.670660136541966434e+00
6.033788707278731955e+00 -2.692201781242063330e+00
6.114239223375781407e+00 -2.700321233887903460e+00
6.194689739472831747e+00 -2.727338261120174412e+00
6.275140255569881198e+00 -2.758488768402960645e+00
6.355590771666931538e+00 -2.750687440193729572e+00
6.436041287763980989e+00 -2.716563138329407323e+00
6.516491803861030441e+00 -2.692620047511075310e+00
6.596942319958079892e+00 -2.665668259781088345e+00
6.677392836055131120e+00 -2.651338214365130508e+00
6.757843352152180572e+00 -2.664935404949198006e+00
6.838293868249230023e+00 -2.705977550864677283e+00
6.918744384346279475e+00 -2.746638904629308708e+00
6.999194900443328926e+00 -2.759403428637410727e+00
7.079645416540378378e+00 -2.736661419107158544e+00
7.160095932637429605e+00 -2.716548141229724322e+00
7.240546448734479057e+00 -2.700409118973919220e+00
7.320996964831528508e+00 -2.677617728463050462e+00
7.401447480928577960e+00 -2.650648699426997101e+00
7.481897997025627411e+00 -2.654867374639442001e+00
7.562348513122678639e+00 -2.681009626902485010e+00
7.642799029219728091e+00 -2.693928286021795238e+00
7.723249545316777542e+00 -2.714856973945453333e+00
7.803700061413826994e+00 -2.725547779657685243e+00
7.884150577510876445e+00 -2.711283825130408331e+00
7.964601093607927673e+00 -2.702797567650723209e+00
8.045051609704977125e+00 -2.723773166601433982e+00
8.125502125802025688e+00 -2.718616321865809038e+00
8.205952641899076028e+00 -2.698669038189358549e+00
8.286403157996124591e+00 -2.691101864390860410e+00
8.366853674093176707e+00 -2.701806791444655964e+00
8.447304190190225270e+00 -2.704593614162686510e+00
8.527754706287275610e+00 -2.729886691448282221e+00
8.608205222384324173e+00 -2.753021440206837589e+00
8.688655738481374513e+00 -2.762770732709051824e+00
8.769106254578423076e+00 -2.745532465308783365e+00
8.849556770675475192e+00 -2.731973568854720202e+00
8.930007286772523756e+00 -2.731138390905526236e+00
9.010457802869574095e+00 -2.729368885224817021e+00
9.090908318966622659e+00 -2.718297029453828451e+00
9.171358835063672998e+00 -2.716461883940553879e+00
9.251809351160723338e+00 -2.747910634561498533e+00
9.332259867257773678e+00 -2.759910870151463858e+00
9.412710383354822241e+00 -2.746394040590117491e+00
9.493160899451872581e+00 -2.750953531388087292e+00
9.573611415548921144e+00 -2.775734777913694717e+00
9.654061931645971484e+00 -2.772639173057624085e+00
9.734512447743021823e+00 -2.763158866409049175e+00
9.814962963840072163e+00 -2.765042136636977066e+00
9.895413479937120727e+00 -2.761052690811130805e+00
9.975863996034171066e+00 -2.755621132460920109e+00
1.005631451213121963e+01 -2.756428865758433489e+00
1.013676502822827175e+01 -2.769845416277560535e+00
1.021721554432532031e+01 -2.803916596178706033e+00
1.029766606042237065e+01 -2.824857152696813145e+00
