0.000000000000000000e+00 -1.549019599857431873e-01
8.045051609704977069e-02 -1.812443690212776071e-01
1.609010321940995414e-01 -4.689129839686186352e-01
2.413515482911492982e-01 -1.174303252129315300e+00
3.218020643881990828e-01 -1.515939385663137351e+00
4.022525804852488118e-01 -1.529666466958746751e+00
4.827030965822985964e-01 -1.540937915308034700e+00
5.631536126793483810e-01 -1.697134711412406460e+00
6.436041287763981655e-01 -1.965001743173239612e+00
7.240546448734478391e-01 -2.169976642570140335e+00
8.045051609704976237e-01 -2.285797088535261867e+00
8.849556770675472972e-01 -2.416060082934072373e+00
9.654061931645971928e-01 -2.525750641210341652e+00
1.045856709261647088e+00 -2.594068028023399197e+00
1.126307225358696762e+00 -2.628459486036290649e+00
1.206757741455746435e+00 -2.671898374112533059e+00
1.287208257552796331e+00 -2.732071857875949306e+00
1.367658773649846005e+00 -2.794968295428534422e+00
1.448109289746895678e+00 -2.853278429237196434e+00
1.528559805843945352e+00 -2.908652958175274694e+00
1.609010321940995247e+00 -2.874066095977489965e+00
1.689460838038045143e+00 -2.785833274880067822e+00
1.769911354135094594e+00 -2.712785059848276337e+00
1.850361870232144490e+00 -2.691139633644787033e+00
1.930812386329194386e+00 -2.684848071444321249e+00
2.011262902426244281e+00 -2.693159403543534225e+00
2.091713418523294177e+00 -2.659831248430683193e+00
2.172163934620343628e+00 -2.600508666844414396e+00
2.252614450717393524e+00 -2.561616409600771416e+00
2.333064966814443419e+00 -2.570099282917178041e+00
2.413515482911492871e+00 -2.626068685515598133e+00
2.493965999008542767e+00 -2.680679733017234057e+00
2.574416515105592662e+00 -2.707990734582927939e+00
2.654867031202642558e+00 -2.715228754692698754e+00
2.735317547299692009e+00 -2.709032015328454168e+00
2.815768063396741905e+00 -2.657731602889763511e+00
2.896218579493791356e+00 -2.602329698633502719e+00
2.976669095590841252e+00 -2.550567470126462233e+00
3.057119611687890703e+00 -2.546578028778636149e+00
3.137570127784940599e+00 -2.593616362204645753e+00
3.218020643881990495e+00 -2.614743033625358759e+00
3.298471159979039946e+00 -2.633472963790821630e+00
3.378921676076090286e+00 -2.591133362924834760e+00
3.459372192173139737e+00 -2.562171679531942914e+00
3.539822708270189189e+00 -2.545567926736244768e+00
3.620273224367239528e+00 -2.577912188908820124e+00
3.700723740464288980e+00 -2.619357215758866708e+00
3.781174256561339320e+00 -2.615025881921335671e+00
3.861624772658388771e+00 -2.622434489362251764e+00
3.942075288755438223e+00 -2.621824304253344007e+00
4.022525804852488562e+00 -2.635725443734628026e+00
4.102976320949538014e+00 -2.629344578252279963e+00
4.183426837046588354e+00 -2.608759647084545108e+00
4.263877353143637805e+00 -2.626841253106227292e+00
4.344327869240687257e+00 -2.667235973492899870e+00
4.424778385337737596e+00 -2.660750342049280626e+00
4.505228901434787048e+00 -2.616945234685512656e+00
4.585679417531836499e+00 -2.577114693876829232e+00
4.666129933628886839e+00 -2.567216405625577291e+00
4.746580449725936290e+00 -2.569690021697421667e+00
4.827030965822985742e+00 -2.609052905032354541e+00
4.907481481920036082e+00 -2.663564311488650027e+00
4.987931998017085533e+00 -2.676553145053504057e+00
5.068382514114135873e+00 -2.645528951822416097e+00
5.148833030211185324e+00 -2.644754696288914353e+00
5.229283546308234776e+00 -2.673982869814623964e+00
5.309734062405285115e+00 -2.717851569782459897e+00
5.390184578502334567e+00 -2.732616493038792616e+00
5.470635094599384018e+00 -2.720605621209495339e+00
5.551085610696433470e+00 -2.714881339247931180e+00
5.631536126793483810e+00 -2.692173963931447034e+00
5.711986642890533261e+00 -2.687398192204462966e+00
5.792437158987582713e+00 -2.691669811940458956e+00
5.872887675084633052e+00 -2.700907793476133190e+00
5.953338191181682504e+00 -2.696577606834362317e+00
6.033788707278731955e+00 -2.684093103071032882e+00
6.114239223375781407e+00 -2.669641125684249605e+00
6.194689739472831747e+00 -2.666486120246247538e+00
6.275140255569881198e+00 -2.676180396617301671e+00
6.355590771666931538e+00 -2.690788778164165951e+00
6.436041287763980989e+00 -2.686406723350083237e+00
6.516491803861030441e+00 -2.678962180277985272e+00
6.596942319958079892e+00 -2.687528689169384588e+00
6.677392836055131120e+00 -2.688455429168821631e+00
6.757843352152180572e+00 -2.690981524253400536e+00
6.838293868249230023e+00 -2.669231307674230003e+00
6.918744384346279475e+00 -2.680773208830277810e+00
6.999194900443328926e+00 -2.712624850302285839e+00
7.079645416540378378e+00 -2.747083506503312123e+00
7.160095932637429605e+00 -2.774887679948528696e+00
7.240546448734479057e+00 -2.771763228760773412e+00
7.320996964831528508e+00 -2.738428604376791142e+00
7.401447480928577960e+00 -2.701776191035954788e+00
7.481897997025627411e+00 -2.687375302224115359e+00
7.562348513122678639e+00 -2.694231031296835166e+00
7.642799029219728091e+00 -2.713998403583832708e+00
7.723249545316777542e+00 -2.732983925835796857e+00
7.803700061413826994e+00 -2.746276381329727290e+00
7.884150577510876445e+00 -2.765579482846388881e+00
7.964601093607927673e+00 -2.759508147613520368e+00
8.045051609704977125e+00 -2.745946198800913507e+00
8.125502125802025688e+00 -2.734735593231624406e+00
8.205952641899076028e+00 -2.732604874562381436e+00
8.286403157996124591e+00 -2.748246543807390196e+00
8.366853674093176707e+00 -2.755414413556135589e+00
8.447304190190225270e+00 -2.766351519047734797e+00
8.527754706287275610e+00 -2.777532487001582506e+00
8.608205222384324173e+00 -2.784368656987425084e+00
8.688655738481374513e+00 -2.782687115039163661e+00
8.769106254578423076e+00 -2.778289018076481209e+00
8.849556770675475192e+00 -2.756563422168128330e+00
8.930007286772523756e+00 -2.744331206798510614e+00
9.010457802869574095e+00 -2.766208996436243073e+00
9.090908318966622659e+00 -2.805392953044035576e+00
9.171358835063672998e+00 -2.827975457327980280e+00
9.251809351160723338e+00 -2.813189407858911029e+00
9.332259867257773678e+00 -2.787582697521286068e+00
9.412710383354822241e+00 -2.770472078602628230e+00
9.493160899451872581e+00 -2.757735167413910116e+00
9.573611415548921144e+00 -2.758828362389647904e+00
9.654061931645971484e+00 -2.771009176486665559e+00
9.734512447743021823e+00 -2.782741955924744826e+00
9.814962963840072163e+00 -2.797419859361055305e+00
9.895413479937120727e+00 -2.842205302144570567e+00
9.975863996034171066e+00 -2.883550101203027793e+00
1.005631451213121963e+01 -2.885748611877013037e+00
1.013676502822827175e+01 -2.849485672024056893e+00
1.021721554432532031e+01 -2.835561695469278831e+00
1.029766606042237065e+01 -2.834000440903552853e+00
