0.000000000000000000e+00 -1.549019599857431873e-01
8.045051609704977069e-02 -2.064582220679911095e-01
1.609010321940995414e-01 -5.950578184974855134e-01
2.413515482911492982e-01 -1.163434479773527652e+00
3.218020643881990828e-01 -1.120950452133442798e+00
4.022525804852488118e-01 -1.179382564700254488e+00
4.827030965822985964e-01 -1.479583046318738937e+00
5.631536126793483810e-01 -1.798390971328746701e+00
6.436041287763981655e-01 -2.024635549227836950e+00
7.240546448734478391e-01 -2.198662439026620508e+00
8.045051609704976237e-01 -2.440374513324793604e+00
8.849556770675472972e-01 -2.643004767773097008e+00
9.654061931645971928e-01 -2.686986501026482177e+00
1.045856709261647088e+00 -2.708458801965297535e+00
1.126307225358696762e+00 -2.742372549509741297e+00
1.206757741455746435e+00 -2.795118454456368973e+00
1.287208257552796331e+00 -2.828241635110846364e+00
1.367658773649846005e+00 -2.776156380691612746e+00
1.448109289746895678e+00 -2.709066446285165242e+00
1.528559805843945352e+00 -2.679061843376221663e+00
1.609010321940995247e+00 -2.706516180967760477e+00
1.689460838038045143e+00 -2.758792542032071804e+00
1.769911354135094594e+00 -2.753357559214820061e+00
1.850361870232144490e+00 -2.684831560805222228e+00
1.930812386329194386e+00 -2.621117789248205820e+00
2.011262902426244281e+00 -2.621385739641505452e+00
2.091713418523294177e+00 -2.643330619186448960e+00
2.172163934620343628e+00 -2.627371632143545632e+00
2.252614450717393524e+00 -2.581952870342060447e+00
2.333064966814443419e+00 -2.579842115980186534e+00
2.413515482911492871e+00 -2.639906999625213579e+00
2.493965999008542767e+00 -2.685977127801096653e+00
2.574416515105592662e+00 -2.625962157885192383e+00
2.654867031202642558e+00 -2.591503126087263631e+00
2.735317547299692009e+00 -2.648333970803579351e+00
2.815768063396741905e+00 -2.667145659445745665e+00
2.896218579493791356e+00 -2.602432593002967476e+00
2.976669095590841252e+00 -2.614581679931956337e+00
3.057119611687890703e+00 -2.682887176336419266e+00
3.137570127784940599e+00 -2.689379132106540116e+00
3.218020643881990495e+00 -2.675563739115455864e+00
3.298471159979039946e+00 -2.679550636303710931e+00
3.378921676076090286e+00 -2.661051817712875689e+00
3.459372192173139737e+00 -2.624727044269073328e+00
3.539822708270189189e+00 -2.620925597258144446e+00
3.620273224367239528e+00 -2.646130419506530718e+00
3.700723740464288980e+00 -2.637788084917688902e+00
3.781174256561339320e+00 -2.633022497788629401e+00
3.861624772658388771e+00 -2.604482068655189497e+00
3.942075288755438223e+00 -2.592017920072775539e+00
4.022525804852488562e+00 -2.601670076005182519e+00
4.102976320949538014e+00 -2.604830841401583275e+00
4.183426837046588354e+00 -2.614558116451931369e+00
4.263877353143637805e+00 -2.663570156134729139e+00
4.344327869240687257e+00 -2.703041107020073941e+00
4.424778385337737596e+00 -2.711206979266028050e+00
4.505228901434787048e+00 -2.719097076455530448e+00
4.585679417531836499e+00 -2.734449123020271433e+00
4.666129933628886839e+00 -2.720602028238377379e+00
4.746580449725936290e+00 -2.672158595344629184e+00
4.827030965822985742e+00 -2.660866077826859577e+00
4.907481481920036082e+00 -2.653947022805241751e+00
4.987931998017085533e+00 -2.649273788145887210e+00
5.068382514114135873e+00 -2.657825896659498977e+00
5.148833030211185324e+00 -2.701694189345197117e+00
5.229283546308234776e+00 -2.704242847177972919e+00
5.309734062405285115e+00 -2.678912161919713153e+00
5.390184578502334567e+00 -2.701045919178961974e+00
5.470635094599384018e+00 -2.734283729545487152e+00
5.551085610696433470e+00 -2.724134271707753907e+00
5.631536126793483810e+00 -2.697547048563863736e+00
5.711986642890533261e+00 -2.696682240899856531e+00
5.792437158987582713e+00 -2.706048674084992278e+00
5.872887675084633052e+00 -2.714765419675100322e+00
5.953338191181682504e+00 -2.719308163314401394e+00
6.033788707278731955e+00 -2.688128967944158898e+00
6.114239223375781407e+00 -2.659277736506374445e+00
6.194689739472831747e+00 -2.653864512038957901e+00
6.275140255569881198e+00 -2.659101257914469940e+00
6.355590771666931538e+00 -2.645886406333649354e+00
6.436041287763980989e+00 -2.627966771216872388e+00
6.516491803861030441e+00 -2.647240939536811943e+00
6.596942319958079892e+00 -2.689644803216945768e+00
6.677392836055131120e+00 -2.710842319206359541e+00
6.757843352152180572e+00 -2.688312677751854451e+00
6.838293868249230023e+00 -2.660431333724685210e+00
6.918744384346279475e+00 -2.639505783850476739e+00
6.999194900443328926e+00 -2.637311848458681496e+00
7.079645416540378378e+00 -2.662862263287929299e+00
7.160095932637429605e+00 -2.683197740453082236e+00
7.240546448734479057e+00 -2.715562274816639921e+00
7.320996964831528508e+00 -2.750060800892462520e+00
7.401447480928577960e+00 -2.774254443111826784e+00
7.481897997025627411e+00 -2.771558940944600646e+00
7.562348513122678639e+00 -2.764880594418591908e+00
7.642799029219728091e+00 -2.763841611722294811e+00
7.723249545316777542e+00 -2.788487671666079137e+00
7.803700061413826994e+00 -2.800065077510465184e+00
7.884150577510876445e+00 -2.763884169907072863e+00
7.964601093607927673e+00 -2.726666474051562261e+00
8.045051609704977125e+00 -2.728379361240043544e+00
8.125502125802025688e+00 -2.762242763290559289e+00
8.205952641899076028e+00 -2.787961934693905519e+00
8.286403157996124591e+00 -2.795747892375401111e+00
8.366853674093176707e+00 -2.780506574540578590e+00
8.447304190190225270e+00 -2.753802790427774649e+00
8.527754706287275610e+00 -2.743206822249252497e+00
8.608205222384324173e+00 -2.769544791196794087e+00
8.688655738481374513e+00 -2.783371362932756110e+00
8.769106254578423076e+00 -2.798845322892182352e+00
8.849556770675475192e+00 -2.785986139797618222e+00
8.930007286772523756e+00 -2.763110301883266562e+00
9.010457802869574095e+00 -2.758928797824394596e+00
9.090908318966622659e+00 -2.769708294301345131e+00
9.171358835063672998e+00 -2.787479078879053329e+00
9.251809351160723338e+00 -2.812887564852770250e+00
9.332259867257773678e+00 -2.815919421448595195e+00
9.412710383354822241e+00 -2.826045341652385190e+00
9.493160899451872581e+00 -2.854957822931140754e+00
9.573611415548921144e+00 -2.889917057526659949e+00
9.654061931645971484e+00 -2.872055940689209663e+00
9.734512447743021823e+00 -2.840321808055902508e+00
9.814962963840072163e+00 -2.826314760013158622e+00
9.895413479937120727e+00 -2.813490033604729490e+00
9.975863996034171066e+00 -2.790351178796830922e+00
1.005631451213121963e+01 -2.781962115463625373e+00
1.013676502822827175e+01 -2.790249958793517226e+00
1.021721554432532031e+01 -2.823211372298507715e+00
1.029766606042237065e+01 -2.822848201874240459e+00
