0.000000000000000000e+00 -1.549019599857431873e-01
8.045051609704977069e-02 -2.072622924026566726e-01
1.609010321940995414e-01 -5.732647185938082313e-01
2.413515482911492982e-01 -1.088379815208858625e+00
3.218020643881990828e-01 -1.102863793679423665e+00
4.022525804852488118e-01 -1.202347503359922465e+00
4.827030965822985964e-01 -1.419748145518482829e+00
5.631536126793483810e-01 -1.719240926229575583e+00
6.436041287763981655e-01 -1.939002134868609284e+00
7.240546448734478391e-01 -2.101027057568201961e+00
8.045051609704976237e-01 -2.372472047547588669e+00
8.849556770675472972e-01 -2.582830056259537876e+00
9.654061931645971928e-01 -2.684559382746198875e+00
1.045856709261647088e+00 -2.720791633174130641e+00
1.126307225358696762e+00 -2.702142810048933530e+00
1.206757741455746435e+00 -2.744159612817685723e+00
1.287208257552796331e+00 -2.831413597710760843e+00
1.367658773649846005e+00 -2.829943663011671440e+00
1.448109289746895678e+00 -2.767670167230836586e+00
1.528559805843945352e+00 -2.713238367439664955e+00
1.609010321940995247e+00 -2.663086722237984816e+00
1.689460838038045143e+00 -2.641602012166720748e+00
1.769911354135094594e+00 -2.587156562577570540e+00
1.850361870232144490e+00 -2.567575288835073799e+00
1.930812386329194386e+00 -2.568789809338681174e+00
2.011262902426244281e+00 -2.604181075299827341e+00
2.091713418523294177e+00 -2.626084702209225519e+00
2.172163934620343628e+00 -2.618239723160884047e+00
2.252614450717393524e+00 -2.594063019384255764e+00
2.333064966814443419e+00 -2.615850904282141176e+00
2.413515482911492871e+00 -2.667588226237525006e+00
2.493965999008542767e+00 -2.671413950504982981e+00
2.574416515105592662e+00 -2.603121562143227319e+00
2.654867031202642558e+00 -2.562625305202864912e+00
2.735317547299692009e+00 -2.619570761416079918e+00
2.815768063396741905e+00 -2.686165845490569470e+00
2.896218579493791356e+00 -2.675062494755403808e+00
2.976669095590841252e+00 -2.641157244461313613e+00
3.057119611687890703e+00 -2.652219340325886243e+00
3.137570127784940599e+00 -2.665776794701468333e+00
3.218020643881990495e+00 -2.655343025947133118e+00
3.298471159979039946e+00 -2.642248301138804933e+00
3.378921676076090286e+00 -2.631389480941904946e+00
3.459372192173139737e+00 -2.611619413192284078e+00
3.539822708270189189e+00 -2.587825875807432841e+00
3.620273224367239528e+00 -2.618326253533136860e+00
3.700723740464288980e+00 -2.658303898187542647e+00
3.781174256561339320e+00 -2.690655182192743577e+00
3.861624772658388771e+00 -2.665161026678375844e+00
3.942075288755438223e+00 -2.621356470552850038e+00
4.022525804852488562e+00 -2.599485475559416781e+00
4.102976320949538014e+00 -2.602663633701427504e+00
4.183426837046588354e+00 -2.624741753090072294e+00
4.263877353143637805e+00 -2.645544932690424567e+00
4.344327869240687257e+00 -2.624333462464539135e+00
4.424778385337737596e+00 -2.600031123922525111e+00
4.505228901434787048e+00 -2.597998567429011363e+00
4.585679417531836499e+00 -2.622874337515869847e+00
4.666129933628886839e+00 -2.610402906995827443e+00
4.746580449725936290e+00 -2.574496316848567279e+00
4.827030965822985742e+00 -2.540744137028508209e+00
4.907481481920036082e+00 -2.544165473768917884e+00
4.987931998017085533e+00 -2.546975595776690415e+00
5.068382514114135873e+00 -2.557282581431643997e+00
5.148833030211185324e+00 -2.590453172118418301e+00
5.229283546308234776e+00 -2.628384435644744777e+00
5.309734062405285115e+00 -2.649120191457300599e+00
5.390184578502334567e+00 -2.650040836064410321e+00
5.470635094599384018e+00 -2.661604193227051329e+00
5.551085610696433470e+00 -2.664424522680020058e+00
5.631536126793483810e+00 -2.652518865883052079e+00
5.711986642890533261e+00 -2.651259297896005673e+00
5.792437158987582713e+00 -2.678180493698196774e+00
5.872887675084633052e+00 -2.689795916325206537e+00
5.953338191181682504e+00 -2.650187702508400633e+00
6.033788707278731955e+00 -2.639316873527964180e+00
6.114239223375781407e+00 -2.654986321930375759e+00
6.194689739472831747e+00 -2.676149318579876368e+00
6.275140255569881198e+00 -2.681258609811768778e+00
6.355590771666931538e+00 -2.694913869494726555e+00
6.436041287763980989e+00 -2.703807353831610971e+00
6.516491803861030441e+00 -2.706211574536508735e+00
6.596942319958079892e+00 -2.727484534622647061e+00
6.677392836055131120e+00 -2.749755965131015500e+00
6.757843352152180572e+00 -2.736048265564616333e+00
6.838293868249230023e+00 -2.707311381007335704e+00
6.918744384346279475e+00 -2.701464561891016025e+00
6.999194900443328926e+00 -2.708574776031864140e+00
7.079645416540378378e+00 -2.715409025005420141e+00
7.160095932637429605e+00 -2.727655347691654963e+00
7.240546448734479057e+00 -2.735509637806072369e+00
7.320996964831528508e+00 -2.754827629724226234e+00
7.401447480928577960e+00 -2.752182382111965087e+00
7.481897997025627411e+00 -2.749699813913367041e+00
7.562348513122678639e+00 -2.759428979828831174e+00
7.642799029219728091e+00 -2.768135597278172710e+00
7.723249545316777542e+00 -2.786891613834741044e+00
7.803700061413826994e+00 -2.816706177493032648e+00
7.884150577510876445e+00 -2.787491808979930319e+00
7.964601093607927673e+00 -2.758789114552553823e+00
8.045051609704977125e+00 -2.744373421287394255e+00
8.125502125802025688e+00 -2.762214489333342904e+00
8.205952641899076028e+00 -2.809620034430914792e+00
8.286403157996124591e+00 -2.851937586205060438e+00
8.366853674093176707e+00 -2.883532244074857864e+00
8.447304190190225270e+00 -2.889057979198065507e+00
8.527754706287275610e+00 -2.857863571424334115e+00
8.608205222384324173e+00 -2.827812741563745735e+00
8.688655738481374513e+00 -2.824673554947934040e+00
8.769106254578423076e+00 -2.834910564629632201e+00
8.849556770675475192e+00 -2.804170802045727218e+00
8.930007286772523756e+00 -2.780296471849123208e+00
9.010457802869574095e+00 -2.780922690752414717e+00
9.090908318966622659e+00 -2.795531556658145345e+00
9.171358835063672998e+00 -2.775192641577976627e+00
9.251809351160723338e+00 -2.771205741377368081e+00
9.332259867257773678e+00 -2.765877196649036307e+00
9.412710383354822241e+00 -2.769477127212206735e+00
9.493160899451872581e+00 -2.801104253023590118e+00
9.573611415548921144e+00 -2.850677239020579457e+00
9.654061931645971484e+00 -2.846581582177541314e+00
9.734512447743021823e+00 -2.794801067071843725e+00
9.814962963840072163e+00 -2.777388496719883193e+00
9.895413479937120727e+00 -2.801091958861465336e+00
9.975863996034171066e+00 -2.829422461256593468e+00
1.005631451213121963e+01 -2.850687866136389914e+00
1.013676502822827175e+01 -2.859267096822809329e+00
1.021721554432532031e+01 -2.869901378387861079e+00
1.029766606042237065e+01 -2.873855834999472059e+00
