0.000000000000000000e+00 -1.549019599857431873e-01
8.045051609704977069e-02 -1.959341466107419050e-01
1.609010321940995414e-01 -5.525844254759824103e-01
2.413515482911492982e-01 -1.363142384103817051e+00
3.218020643881990828e-01 -1.718661885249712862e+00
4.022525804852488118e-01 -2.012731753053253581e+00
4.827030965822985964e-01 -2.456166047293220966e+00
5.631536126793483810e-01 -2.800643195266040664e+00
6.436041287763981655e-01 -3.053868361155800404e+00
7.240546448734478391e-01 -3.349570477941344215e+00
8.045051609704976237e-01 -3.439009623127336823e+00
8.849556770675472972e-01 -3.409515464013770814e+00
9.654061931645971928e-01 -3.436004442983976670e+00
1.045856709261647088e+00 -3.558393578740991714e+00
1.126307225358696762e+00 -3.660537253319878559e+00
1.206757741455746435e+00 -3.684328449071116562e+00
1.287208257552796331e+00 -3.617593709092751464e+00
1.367658773649846005e+00 -3.612403077067002588e+00
1.448109289746895678e+00 -3.665318454277159077e+00
1.528559805843945352e+00 -3.668082869688030545e+00
1.609010321940995247e+00 -3.575453309131109592e+00
1.689460838038045143e+00 -3.477138762201211541e+00
1.769911354135094594e+00 -3.373432778720934611e+00
1.850361870232144490e+00 -3.258062250091221301e+00
1.930812386329194386e+00 -3.146801074516712315e+00
2.011262902426244281e+00 -3.130157833117693134e+00
2.091713418523294177e+00 -3.142426912513432757e+00
2.172163934620343628e+00 -3.153379706851399344e+00
2.252614450717393524e+00 -3.128511657966571047e+00
2.333064966814443419e+00 -3.100203622386733304e+00
2.413515482911492871e+00 -3.136673542040272711e+00
2.493965999008542767e+00 -3.162908657102389665e+00
2.574416515105592662e+00 -3.129620537631429666e+00
2.654867031202642558e+00 -3.134835037096260102e+00
2.735317547299692009e+00 -3.149660596186086181e+00
2.815768063396741905e+00 -3.168503091341301925e+00
2.896218579493791356e+00 -3.187776997610208607e+00
2.976669095590841252e+00 -3.226939506229259624e+00
3.057119611687890703e+00 -3.261056884278070722e+00
3.137570127784940599e+00 -3.264281130128024344e+00
3.218020643881990495e+00 -3.247943197971805862e+00
3.298471159979039946e+00 -3.236344107530571002e+00
3.378921676076090286e+00 -3.228964420644321098e+00
3.459372192173139737e+00 -3.166223716754730688e+00
3.539822708270189189e+00 -3.099929710742360900e+00
3.620273224367239528e+00 -3.136038483185226156e+00
3.700723740464288980e+00 -3.234855002948162639e+00
3.781174256561339320e+00 -3.232800348571778226e+00
3.861624772658388771e+00 -3.171753655396007954e+00
3.942075288755438223e+00 -3.149982434979203383e+00
4.022525804852488562e+00 -3.135394562890196024e+00
4.102976320949538014e+00 -3.125277066871569254e+00
4.183426837046588354e+00 -3.142975501690223439e+00
4.263877353143637805e+00 -3.193514302852050957e+00
4.344327869240687257e+00 -3.245474400264324544e+00
4.424778385337737596e+00 -3.255433594274122377e+00
4.505228901434787048e+00 -3.257973152175036358e+00
4.585679417531836499e+00 -3.286043364411659784e+00
4.666129933628886839e+00 -3.297323790814813194e+00
4.746580449725936290e+00 -3.271113990700329932e+00
4.827030965822985742e+00 -3.270785294871966453e+00
4.907481481920036082e+00 -3.269322287765672908e+00
4.987931998017085533e+00 -3.240868858109125394e+00
5.068382514114135873e+00 -3.245960582552932294e+00
5.148833030211185324e+00 -3.271558744752671277e+00
5.229283546308234776e+00 -3.285059830057894814e+00
5.309734062405285115e+00 -3.283324458434021320e+00
5.390184578502334567e+00 -3.289035474609218301e+00
5.470635094599384018e+00 -3.274001521098656831e+00
5.551085610696433470e+00 -3.249474268750787598e+00
5.631536126793483810e+00 -3.237138774860787382e+00
5.711986642890533261e+00 -3.240145337320919250e+00
5.792437158987582713e+00 -3.266041023191275094e+00
5.872887675084633052e+00 -3.287609080882107015e+00
5.953338191181682504e+00 -3.286314490972106483e+00
6.033788707278731955e+00 -3.286975485252314311e+00
6.114239223375781407e+00 -3.290436711904853428e+00
6.194689739472831747e+00 -3.301141101131226385e+00
6.275140255569881198e+00 -3.296524005681472858e+00
6.355590771666931538e+00 -3.307127880519576735e+00
6.436041287763980989e+00 -3.320159119853213436e+00
6.516491803861030441e+00 -3.315594823090212806e+00
6.596942319958079892e+00 -3.280577598554617058e+00
6.677392836055131120e+00 -3.258610892520015678e+00
6.757843352152180572e+00 -3.245335921799547219e+00
6.838293868249230023e+00 -3.237140615870208737e+00
6.918744384346279475e+00 -3.248775914002228760e+00
6.999194900443328926e+00 -3.263708719788152024e+00
7.079645416540378378e+00 -3.273951104763092257e+00
7.160095932637429605e+00 -3.290783638408628864e+00
7.240546448734479057e+00 -3.313776332451852991e+00
7.320996964831528508e+00 -3.337825114552858352e+00
7.401447480928577960e+00 -3.333440114867200599e+00
7.481897997025627411e+00 -3.309000664695321614e+00
7.562348513122678639e+00 -3.303203023786326575e+00
7.642799029219728091e+00 -3.331371452725222060e+00
7.723249545316777542e+00 -3.364765271710753680e+00
7.803700061413826994e+00 -3.354980007640302908e+00
7.884150577510876445e+00 -3.331501723711293828e+00
7.964601093607927673e+00 -3.311188876202537656e+00
8.045051609704977125e+00 -3.321490643846678470e+00
8.125502125802025688e+00 -3.342703157510944489e+00
8.205952641899076028e+00 -3.324290090384402596e+00
8.286403157996124591e+00 -3.291746012723414605e+00
8.366853674093176707e+00 -3.276439639352914046e+00
8.447304190190225270e+00 -3.301520702682168462e+00
8.527754706287275610e+00 -3.334674210802965444e+00
8.608205222384324173e+00 -3.344802385494665575e+00
8.688655738481374513e+00 -3.341527463779137896e+00
8.769106254578423076e+00 -3.327426067071880489e+00
8.849556770675475192e+00 -3.356875071820274226e+00
8.930007286772523756e+00 -3.390386530180840907e+00
9.010457802869574095e+00 -3.404572157839812263e+00
9.090908318966622659e+00 -3.388985663405057913e+00
9.171358835063672998e+00 -3.360472015588483963e+00
9.251809351160723338e+00 -3.345488227258123892e+00
9.332259867257773678e+00 -3.358645985568021075e+00
9.412710383354822241e+00 -3.352821167065736851e+00
9.493160899451872581e+00 -3.336191562635194341e+00
9.573611415548921144e+00 -3.340410202130132955e+00
9.654061931645971484e+00 -3.375474139886689873e+00
9.734512447743021823e+00 -3.394202177703653955e+00
9.814962963840072163e+00 -3.404801689744489934e+00
9.895413479937120727e+00 -3.382570989174594089e+00
9.975863996034171066e+00 -3.350868161243704346e+00
1.005631451213121963e+01 -3.346607624484662313e+00
1.013676502822827175e+01 -3.357215516787828147e+00
1.021721554432532031e+01 -3.382286048209443674e+00
1.029766606042237065e+01 -3.393426601309399882e+00
