0.000000000000000000e+00 -1.549019599857431873e-01
8.045051609704977069e-02 -2.113263657663460304e-01
1.609010321940995414e-01 -6.301245079984857389e-01
2.413515482911492982e-01 -1.722166647088710922e+00
3.218020643881990828e-01 -1.899242833557402532e+00
4.022525804852488118e-01 -2.207810055224461276e+00
4.827030965822985964e-01 -2.595492855719704117e+00
5.631536126793483810e-01 -2.921623196165066272e+00
6.436041287763981655e-01 -3.193730991904747185e+00
7.240546448734478391e-01 -3.408115175539981667e+00
8.045051609704976237e-01 -3.461515419722278608e+00
8.849556770675472972e-01 -3.485037768698295402e+00
9.654061931645971928e-01 -3.608761207089216327e+00
1.045856709261647088e+00 -3.793002595176653280e+00
1.126307225358696762e+00 -3.858733504661660429e+00
1.206757741455746435e+00 -3.781958282525139214e+00
1.287208257552796331e+00 -3.723642352384685328e+00
1.367658773649846005e+00 -3.719890947020237704e+00
1.448109289746895678e+00 -3.711925775508844172e+00
1.528559805843945352e+00 -3.645042277564425781e+00
1.609010321940995247e+00 -3.535000244885520004e+00
1.689460838038045143e+00 -3.430681302561941148e+00
1.769911354135094594e+00 -3.384747716301295561e+00
1.850361870232144490e+00 -3.355674135204205655e+00
1.930812386329194386e+00 -3.352242177005544388e+00
2.011262902426244281e+00 -3.296471572963392660e+00
2.091713418523294177e+00 -3.238129903514939123e+00
2.172163934620343628e+00 -3.194422900229536566e+00
2.252614450717393524e+00 -3.128387043006077839e+00
2.333064966814443419e+00 -3.136559881622529744e+00
2.413515482911492871e+00 -3.170506884553175642e+00
2.493965999008542767e+00 -3.201823140979092930e+00
2.574416515105592662e+00 -3.246997650555523585e+00
2.654867031202642558e+00 -3.305330028958163080e+00
2.735317547299692009e+00 -3.310254373841810427e+00
2.815768063396741905e+00 -3.291009265770923342e+00
2.896218579493791356e+00 -3.278756939963591854e+00
2.976669095590841252e+00 -3.286160750257509200e+00
3.057119611687890703e+00 -3.279104204633736863e+00
3.137570127784940599e+00 -3.277900320297481684e+00
3.218020643881990495e+00 -3.231514942661208867e+00
3.298471159979039946e+00 -3.223415368341032927e+00
3.378921676076090286e+00 -3.219389699246041570e+00
3.459372192173139737e+00 -3.231547614828204740e+00
3.539822708270189189e+00 -3.249992228049410237e+00
3.620273224367239528e+00 -3.243839672283173048e+00
3.700723740464288980e+00 -3.212448766169433867e+00
3.781174256561339320e+00 -3.190424222547476152e+00
3.861624772658388771e+00 -3.215016194235805091e+00
3.942075288755438223e+00 -3.225926291439298765e+00
4.022525804852488562e+00 -3.227532749394554035e+00
4.102976320949538014e+00 -3.231536203307239230e+00
4.183426837046588354e+00 -3.237026407185749299e+00
4.263877353143637805e+00 -3.245957975945600538e+00
4.344327869240687257e+00 -3.227838677265561618e+00
4.424778385337737596e+00 -3.239383054689126684e+00
4.505228901434787048e+00 -3.267265876115831968e+00
4.585679417531836499e+00 -3.311364394346512086e+00
4.666129933628886839e+00 -3.334742860443562495e+00
4.746580449725936290e+00 -3.316172889119100908e+00
4.827030965822985742e+00 -3.281315577058026456e+00
4.907481481920036082e+00 -3.237181085285106175e+00
4.987931998017085533e+00 -3.195732542724204706e+00
5.068382514114135873e+00 -3.199385294907159949e+00
5.148833030211185324e+00 -3.205860041362094570e+00
5.229283546308234776e+00 -3.223179197650110517e+00
5.309734062405285115e+00 -3.244377354646575728e+00
5.390184578502334567e+00 -3.268157994312233416e+00
5.470635094599384018e+00 -3.263202878994677647e+00
5.551085610696433470e+00 -3.271080347777640007e+00
5.631536126793483810e+00 -3.288839424425675784e+00
5.711986642890533261e+00 -3.310797301350183020e+00
5.792437158987582713e+00 -3.281091382213950247e+00
5.872887675084633052e+00 -3.261921684957949985e+00
5.953338191181682504e+00 -3.297019403434171547e+00
6.033788707278731955e+00 -3.329709480722601533e+00
6.114239223375781407e+00 -3.324986174532767347e+00
6.194689739472831747e+00 -3.333255564930206027e+00
6.275140255569881198e+00 -3.335690544781119371e+00
6.355590771666931538e+00 -3.314351564605428901e+00
6.436041287763980989e+00 -3.283018660869324368e+00
6.516491803861030441e+00 -3.285288301076863426e+00
6.596942319958079892e+00 -3.315869271971057408e+00
6.677392836055131120e+00 -3.341448882717239499e+00
6.757843352152180572e+00 -3.328368387891702529e+00
6.838293868249230023e+00 -3.337625649083129087e+00
6.918744384346279475e+00 -3.344383604103469576e+00
6.999194900443328926e+00 -3.325205239697595072e+00
7.079645416540378378e+00 -3.299166920722260254e+00
7.160095932637429605e+00 -3.302306624433076987e+00
7.240546448734479057e+00 -3.326577129397760846e+00
7.320996964831528508e+00 -3.336290126973179948e+00
7.401447480928577960e+00 -3.319958294986774749e+00
7.481897997025627411e+00 -3.316122777241358843e+00
7.562348513122678639e+00 -3.299618099781174596e+00
7.642799029219728091e+00 -3.283706423315891243e+00
7.723249545316777542e+00 -3.307360618908136374e+00
7.803700061413826994e+00 -3.327920077892222661e+00
7.884150577510876445e+00 -3.338242490163842557e+00
7.964601093607927673e+00 -3.355624854385640621e+00
8.045051609704977125e+00 -3.361827193532585412e+00
8.125502125802025688e+00 -3.354457501580483392e+00
8.205952641899076028e+00 -3.353084375246970339e+00
8.286403157996124591e+00 -3.347778287869467295e+00
8.366853674093176707e+00 -3.348693116384864776e+00
8.447304190190225270e+00 -3.348916982852732982e+00
8.527754706287275610e+00 -3.347691659559189237e+00
8.608205222384324173e+00 -3.344243761853875618e+00
8.688655738481374513e+00 -3.341810864557402283e+00
8.769106254578423076e+00 -3.344415090291261716e+00
8.849556770675475192e+00 -3.348456753457022650e+00
8.930007286772523756e+00 -3.359624746475342150e+00
9.010457802869574095e+00 -3.383123625739620000e+00
9.090908318966622659e+00 -3.379783901650011302e+00
9.171358835063672998e+00 -3.362975734586297616e+00
9.251809351160723338e+00 -3.384689163213173035e+00
9.332259867257773678e+00 -3.414056818026550921e+00
9.412710383354822241e+00 -3.408370568180917104e+00
9.493160899451872581e+00 -3.420094046018353762e+00
9.573611415548921144e+00 -3.430545773741501492e+00
9.654061931645971484e+00 -3.423677930534443803e+00
9.734512447743021823e+00 -3.396960295315476941e+00
9.814962963840072163e+00 -3.400250993137688749e+00
9.895413479937120727e+00 -3.433807309854159939e+00
9.975863996034171066e+00 -3.456363828085029954e+00
1.005631451213121963e+01 -3.457813344977248349e+00
1.013676502822827175e+01 -3.462175255264442697e+00
1.021721554432532031e+01 -3.489502740951413884e+00
1.029766606042237065e+01 -3.518763884770044204e+00
