0.000000000000000000e+00 -1.549019599857431873e-01
8.045051609704977069e-02 -2.039267698788645999e-01
1.609010321940995414e-01 -6.217766857178250728e-01
2.413515482911492982e-01 -2.100362240602366093e+00
3.218020643881990828e-01 -2.422698122540402732e+00
4.022525804852488118e-01 -2.487949414732384401e+00
4.827030965822985964e-01 -2.688604146963792019e+00
5.631536126793483810e-01 -3.030123900097384748e+00
6.436041287763981655e-01 -3.270208714829287100e+00
7.240546448734478391e-01 -3.408241939685877409e+00
8.045051609704976237e-01 -3.500887543120398071e+00
8.849556770675472972e-01 -3.591921640889722767e+00
9.654061931645971928e-01 -3.620326695937170491e+00
1.045856709261647088e+00 -3.648737080844090652e+00
1.126307225358696762e+00 -3.698080756909151390e+00
1.206757741455746435e+00 -3.729945569742233680e+00
1.287208257552796331e+00 -3.715150086374377825e+00
1.367658773649846005e+00 -3.610809963038115189e+00
1.448109289746895678e+00 -3.489910168997458761e+00
1.528559805843945352e+00 -3.436430404826490204e+00
1.609010321940995247e+00 -3.467500671521499100e+00
1.689460838038045143e+00 -3.487252711710192798e+00
1.769911354135094594e+00 -3.437189589969941395e+00
1.850361870232144490e+00 -3.336511869630390148e+00
1.930812386329194386e+00 -3.277398238477556180e+00
2.011262902426244281e+00 -3.268384938647343585e+00
2.091713418523294177e+00 -3.260560547146944543e+00
2.172163934620343628e+00 -3.194585621057835834e+00
2.252614450717393524e+00 -3.168691997680273431e+00
2.333064966814443419e+00 -3.180627610784847015e+00
2.413515482911492871e+00 -3.191805783215237113e+00
2.493965999008542767e+00 -3.157474425261246331e+00
2.574416515105592662e+00 -3.146072145259559694e+00
2.654867031202642558e+00 -3.207744709730512955e+00
2.735317547299692009e+00 -3.248898820923884934e+00
2.815768063396741905e+00 -3.248783762456717294e+00
2.896218579493791356e+00 -3.266033516937011161e+00
2.976669095590841252e+00 -3.280196827667199333e+00
3.057119611687890703e+00 -3.262282810982473524e+00
3.137570127784940599e+00 -3.269756338073990243e+00
3.218020643881990495e+00 -3.287308758652156104e+00
3.298471159979039946e+00 -3.280154049733719823e+00
3.378921676076090286e+00 -3.234442108414145256e+00
3.459372192173139737e+00 -3.185456939415936883e+00
3.539822708270189189e+00 -3.140450743146500301e+00
3.620273224367239528e+00 -3.115787115520070927e+00
3.700723740464288980e+00 -3.141405934818612966e+00
3.781174256561339320e+00 -3.175452787697692347e+00
3.861624772658388771e+00 -3.191221746340926479e+00
3.942075288755438223e+00 -3.209175648156272320e+00
4.022525804852488562e+00 -3.248914405260962202e+00
4.102976320949538014e+00 -3.262537752059790019e+00
4.183426837046588354e+00 -3.266349426833783376e+00
4.263877353143637805e+00 -3.244761793561282914e+00
4.344327869240687257e+00 -3.214071044008297129e+00
4.424778385337737596e+00 -3.181654101204676621e+00
4.505228901434787048e+00 -3.181380206721535320e+00
4.585679417531836499e+00 -3.207764850311891625e+00
4.666129933628886839e+00 -3.232804498158242001e+00
4.746580449725936290e+00 -3.270364008711460269e+00
4.827030965822985742e+00 -3.306844064807846539e+00
4.907481481920036082e+00 -3.331593346633516806e+00
4.987931998017085533e+00 -3.310626467511216919e+00
5.068382514114135873e+00 -3.296851021804505955e+00
5.148833030211185324e+00 -3.269318040661482794e+00
5.229283546308234776e+00 -3.242771481529828304e+00
5.309734062405285115e+00 -3.241024966408868835e+00
5.390184578502334567e+00 -3.273847203372663550e+00
5.470635094599384018e+00 -3.328737300889322182e+00
5.551085610696433470e+00 -3.352450119741273049e+00
5.631536126793483810e+00 -3.336904729622347965e+00
5.711986642890533261e+00 -3.293888041327165173e+00
5.792437158987582713e+00 -3.279053183043231456e+00
5.872887675084633052e+00 -3.283130784091538690e+00
5.953338191181682504e+00 -3.304988234403436476e+00
6.033788707278731955e+00 -3.327347174719792466e+00
6.114239223375781407e+00 -3.320774997235590220e+00
6.194689739472831747e+00 -3.308972951233534854e+00
6.275140255569881198e+00 -3.303745001470505205e+00
6.355590771666931538e+00 -3.318676946351312385e+00
6.436041287763980989e+00 -3.328352437376570272e+00
6.516491803861030441e+00 -3.336225005766498608e+00
6.596942319958079892e+00 -3.357347791391445124e+00
6.677392836055131120e+00 -3.351045229453945229e+00
6.757843352152180572e+00 -3.328619007088867487e+00
6.838293868249230023e+00 -3.339369622240876190e+00
6.918744384346279475e+00 -3.325752571045747619e+00
6.999194900443328926e+00 -3.305387769336828097e+00
7.079645416540378378e+00 -3.275033746390852318e+00
7.160095932637429605e+00 -3.263747438728806571e+00
7.240546448734479057e+00 -3.277595369281736559e+00
7.320996964831528508e+00 -3.312859168044575142e+00
7.401447480928577960e+00 -3.338725196004666440e+00
7.481897997025627411e+00 -3.334605269209785838e+00
7.562348513122678639e+00 -3.322989898127914898e+00
7.642799029219728091e+00 -3.321365724696153432e+00
7.723249545316777542e+00 -3.323006611578003255e+00
7.803700061413826994e+00 -3.322878642578655839e+00
7.884150577510876445e+00 -3.306271982377824159e+00
7.964601093607927673e+00 -3.315836210128953798e+00
8.045051609704977125e+00 -3.335883518371580259e+00
8.125502125802025688e+00 -3.361346374284990723e+00
8.205952641899076028e+00 -3.357149851265702534e+00
8.286403157996124591e+00 -3.334564714424868015e+00
8.366853674093176707e+00 -3.350675161281372549e+00
8.447304190190225270e+00 -3.381042991085975391e+00
8.527754706287275610e+00 -3.395546629154793106e+00
8.608205222384324173e+00 -3.390888089195770672e+00
8.688655738481374513e+00 -3.420863324041234499e+00
8.769106254578423076e+00 -3.445419713848691501e+00
8.849556770675475192e+00 -3.434509165699778155e+00
8.930007286772523756e+00 -3.405889652572151594e+00
9.010457802869574095e+00 -3.403227980790511698e+00
9.090908318966622659e+00 -3.428009887939626577e+00
9.171358835063672998e+00 -3.433864982608081817e+00
9.251809351160723338e+00 -3.436981208029312285e+00
9.332259867257773678e+00 -3.431274098371160264e+00
9.412710383354822241e+00 -3.411403900059314154e+00
9.493160899451872581e+00 -3.392812362856386876e+00
9.573611415548921144e+00 -3.384494744280442724e+00
9.654061931645971484e+00 -3.393487177530082111e+00
9.734512447743021823e+00 -3.393662709093337781e+00
9.814962963840072163e+00 -3.400861743641950596e+00
9.895413479937120727e+00 -3.408417706650867629e+00
9.975863996034171066e+00 -3.407445536070965009e+00
1.005631451213121963e+01 -3.411712499593083425e+00
1.013676502822827175e+01 -3.440762763675053737e+00
1.021721554432532031e+01 -3.459878337489086242e+00
1.029766606042237065e+01 -3.463053328132251973e+00
