0.000000000000000000e+00 -1.549019599857431873e-01
8.045051609704977069e-02 -2.100036851522999737e-01
1.609010321940995414e-01 -5.894821375732119950e-01
2.413515482911492982e-01 -1.906060347392613430e+00
3.218020643881990828e-01 -2.128683559712575057e+00
4.022525804852488118e-01 -2.249800884152501901e+00
4.827030965822985964e-01 -2.471003952262569303e+00
5.631536126793483810e-01 -2.709210165157491801e+00
6.436041287763981655e-01 -2.993987187657187743e+00
7.240546448734478391e-01 -3.265715440905262223e+00
8.045051609704976237e-01 -3.451065634082107536e+00
8.849556770675472972e-01 -3.549502743941666871e+00
9.654061931645971928e-01 -3.689049765032628603e+00
1.045856709261647088e+00 -3.818998370118836583e+00
1.126307225358696762e+00 -3.882754078925190644e+00
1.206757741455746435e+00 -3.852067745801313503e+00
1.287208257552796331e+00 -3.808243225472422999e+00
1.367658773649846005e+00 -3.771666077584292065e+00
1.448109289746895678e+00 -3.704456115939681826e+00
1.528559805843945352e+00 -3.583791012072568893e+00
1.609010321940995247e+00 -3.538152181116732464e+00
1.689460838038045143e+00 -3.466195339334677605e+00
1.769911354135094594e+00 -3.375494854307790948e+00
1.850361870232144490e+00 -3.325399745421900644e+00
1.930812386329194386e+00 -3.247084352683146768e+00
2.011262902426244281e+00 -3.194103602576197520e+00
2.091713418523294177e+00 -3.161199181606603403e+00
2.172163934620343628e+00 -3.148299447395239259e+00
2.252614450717393524e+00 -3.165894816520662403e+00
2.333064966814443419e+00 -3.180374195642226010e+00
2.413515482911492871e+00 -3.211191987018437999e+00
2.493965999008542767e+00 -3.259379703912152593e+00
2.574416515105592662e+00 -3.336406021007594092e+00
2.654867031202642558e+00 -3.311281494800428771e+00
2.735317547299692009e+00 -3.242657911616045219e+00
2.815768063396741905e+00 -3.264850655439541782e+00
2.896218579493791356e+00 -3.333362301386410209e+00
2.976669095590841252e+00 -3.338305985064827563e+00
3.057119611687890703e+00 -3.308094357781645733e+00
3.137570127784940599e+00 -3.290015600450367561e+00
3.218020643881990495e+00 -3.268922634598786736e+00
3.298471159979039946e+00 -3.247006250957230389e+00
3.378921676076090286e+00 -3.231079562730530874e+00
3.459372192173139737e+00 -3.227514830902399989e+00
3.539822708270189189e+00 -3.244073862101427341e+00
3.620273224367239528e+00 -3.223891532507610957e+00
3.700723740464288980e+00 -3.169781030054829252e+00
3.781174256561339320e+00 -3.141878807648152083e+00
3.861624772658388771e+00 -3.165146914692900548e+00
3.942075288755438223e+00 -3.187842321840588689e+00
4.022525804852488562e+00 -3.213219755425730018e+00
4.102976320949538014e+00 -3.214486527213518574e+00
4.183426837046588354e+00 -3.224039581912554464e+00
4.263877353143637805e+00 -3.275654291584234379e+00
4.344327869240687257e+00 -3.310646516952339802e+00
4.424778385337737596e+00 -3.311275769867252805e+00
4.505228901434787048e+00 -3.288588011949416856e+00
4.585679417531836499e+00 -3.284552593340138049e+00
4.666129933628886839e+00 -3.292176645659310452e+00
4.746580449725936290e+00 -3.329575809615194615e+00
4.827030965822985742e+00 -3.341613629168428634e+00
4.907481481920036082e+00 -3.342232474738471293e+00
4.987931998017085533e+00 -3.340063396785792449e+00
5.068382514114135873e+00 -3.314414610418036755e+00
5.148833030211185324e+00 -3.282132086406344129e+00
5.229283546308234776e+00 -3.281606257623864042e+00
5.309734062405285115e+00 -3.287770754658334127e+00
5.390184578502334567e+00 -3.277663577776014581e+00
5.470635094599384018e+00 -3.289559408421943942e+00
5.551085610696433470e+00 -3.297810067399554068e+00
5.631536126793483810e+00 -3.301944942646590331e+00
5.711986642890533261e+00 -3.312497487104501648e+00
5.792437158987582713e+00 -3.338753544511282367e+00
5.872887675084633052e+00 -3.337744289588938873e+00
5.953338191181682504e+00 -3.314086099542999708e+00
6.033788707278731955e+00 -3.299545904617079639e+00
6.114239223375781407e+00 -3.288338602181227088e+00
6.194689739472831747e+00 -3.285388577827711654e+00
6.275140255569881198e+00 -3.330937273008210742e+00
6.355590771666931538e+00 -3.400372784650815383e+00
6.436041287763980989e+00 -3.410294959265273818e+00
6.516491803861030441e+00 -3.330593047551948072e+00
6.596942319958079892e+00 -3.285486246771119223e+00
6.677392836055131120e+00 -3.292156207215072516e+00
6.757843352152180572e+00 -3.310056139193466418e+00
6.838293868249230023e+00 -3.344537742419595006e+00
6.918744384346279475e+00 -3.356306219635169175e+00
6.999194900443328926e+00 -3.310832032250877521e+00
7.079645416540378378e+00 -3.267341094601492468e+00
7.160095932637429605e+00 -3.271759210189803646e+00
7.240546448734479057e+00 -3.301024734637203473e+00
7.320996964831528508e+00 -3.301716220060863183e+00
7.401447480928577960e+00 -3.315392504788353012e+00
7.481897997025627411e+00 -3.341409252896466953e+00
7.562348513122678639e+00 -3.339358753126812740e+00
7.642799029219728091e+00 -3.304514249622174660e+00
7.723249545316777542e+00 -3.292210357084379702e+00
7.803700061413826994e+00 -3.300475814356990334e+00
7.884150577510876445e+00 -3.320843277289761364e+00
7.964601093607927673e+00 -3.344418002484396801e+00
8.045051609704977125e+00 -3.372348323857457864e+00
8.125502125802025688e+00 -3.392370805100838549e+00
8.205952641899076028e+00 -3.390612400000843518e+00
8.286403157996124591e+00 -3.387942718363447181e+00
8.366853674093176707e+00 -3.369155934272616726e+00
8.447304190190225270e+00 -3.362216552590810092e+00
8.527754706287275610e+00 -3.356970784640446404e+00
8.608205222384324173e+00 -3.368366636556089144e+00
8.688655738481374513e+00 -3.387139533419682991e+00
8.769106254578423076e+00 -3.386519921142012279e+00
8.849556770675475192e+00 -3.358526269709402712e+00
8.930007286772523756e+00 -3.350468372482397594e+00
9.010457802869574095e+00 -3.361102926833464899e+00
9.090908318966622659e+00 -3.369858602810849924e+00
9.171358835063672998e+00 -3.384632231103483768e+00
9.251809351160723338e+00 -3.383994020332879327e+00
9.332259867257773678e+00 -3.375449076818152871e+00
9.412710383354822241e+00 -3.375009315621257944e+00
9.493160899451872581e+00 -3.377414354223952753e+00
9.573611415548921144e+00 -3.388526063102232033e+00
9.654061931645971484e+00 -3.418318134302688271e+00
9.734512447743021823e+00 -3.451355894823406434e+00
9.814962963840072163e+00 -3.468848196497407610e+00
9.895413479937120727e+00 -3.468365546144000611e+00
9.975863996034171066e+00 -3.456740242396538765e+00
1.005631451213121963e+01 -3.439801528734176994e+00
1.013676502822827175e+01 -3.438882057513001467e+00
1.021721554432532031e+01 -3.478387522303787449e+00
1.029766606042237065e+01 -3.509101521515387123e+00
