0.000000000000000000e+00 -1.549019599857431873e-01
8.045051609704977069e-02 -1.909025330876895632e-01
1.609010321940995414e-01 -5.093383184981054024e-01
2.413515482911492982e-01 -1.275233710238032447e+00
3.218020643881990828e-01 -1.784590373069778080e+00
4.022525804852488118e-01 -1.992856631063412154e+00
4.827030965822985964e-01 -2.434975326011990404e+00
5.631536126793483810e-01 -2.931365785125644052e+00
6.436041287763981655e-01 -3.192671087355705595e+00
7.240546448734478391e-01 -3.296986387642287575e+00
8.045051609704976237e-01 -3.384457571575967716e+00
8.849556770675472972e-01 -3.511578615522143121e+00
9.654061931645971928e-01 -3.636169833729002043e+00
1.045856709261647088e+00 -3.707099954570378220e+00
1.126307225358696762e+00 -3.696310820323631674e+00
1.206757741455746435e+00 -3.649243563690422576e+00
1.287208257552796331e+00 -3.661581557302466816e+00
1.367658773649846005e+00 -3.712022549823827511e+00
1.448109289746895678e+00 -3.655275396302743118e+00
1.528559805843945352e+00 -3.555205120102820526e+00
1.609010321940995247e+00 -3.453452920836653561e+00
1.689460838038045143e+00 -3.409825770386181620e+00
1.769911354135094594e+00 -3.363679310955831170e+00
1.850361870232144490e+00 -3.309614118128440197e+00
1.930812386329194386e+00 -3.240635140811564341e+00
2.011262902426244281e+00 -3.250538882940849916e+00
2.091713418523294177e+00 -3.275111277323517367e+00
2.172163934620343628e+00 -3.275923923243917013e+00
2.252614450717393524e+00 -3.214030661114271048e+00
2.333064966814443419e+00 -3.167822398996597677e+00
2.413515482911492871e+00 -3.206273261133722574e+00
2.493965999008542767e+00 -3.260435490413974513e+00
2.574416515105592662e+00 -3.310458215824479300e+00
2.654867031202642558e+00 -3.297129470637144788e+00
2.735317547299692009e+00 -3.247859538268087043e+00
2.815768063396741905e+00 -3.205751587558082871e+00
2.896218579493791356e+00 -3.216135836757496591e+00
2.976669095590841252e+00 -3.252097232420185779e+00
3.057119611687890703e+00 -3.228324841269685663e+00
3.137570127784940599e+00 -3.192271522545938822e+00
3.218020643881990495e+00 -3.162801112607431353e+00
3.298471159979039946e+00 -3.183850322710692460e+00
3.378921676076090286e+00 -3.220520490738199015e+00
3.459372192173139737e+00 -3.222531680709073587e+00
3.539822708270189189e+00 -3.213270841650984977e+00
3.620273224367239528e+00 -3.228662423525908487e+00
3.700723740464288980e+00 -3.256100104135008166e+00
3.781174256561339320e+00 -3.268879560810823204e+00
3.861624772658388771e+00 -3.272738023043992417e+00
3.942075288755438223e+00 -3.254466853709145013e+00
4.022525804852488562e+00 -3.227409119322877995e+00
4.102976320949538014e+00 -3.208564562506384998e+00
4.183426837046588354e+00 -3.195632738459189159e+00
4.263877353143637805e+00 -3.183809117571087643e+00
4.344327869240687257e+00 -3.171710568319427104e+00
4.424778385337737596e+00 -3.195019445594767582e+00
4.505228901434787048e+00 -3.214853989468402951e+00
4.585679417531836499e+00 -3.238149204246974389e+00
4.666129933628886839e+00 -3.269349670782661477e+00
4.746580449725936290e+00 -3.268355630374128573e+00
4.827030965822985742e+00 -3.257334770820317082e+00
4.907481481920036082e+00 -3.260086022244219617e+00
4.987931998017085533e+00 -3.267358171340633444e+00
5.068382514114135873e+00 -3.272757414027635203e+00
5.148833030211185324e+00 -3.247324774937603298e+00
5.229283546308234776e+00 -3.217613630196838770e+00
5.309734062405285115e+00 -3.204302561104533709e+00
5.390184578502334567e+00 -3.217187983624870018e+00
5.470635094599384018e+00 -3.229007761672507471e+00
5.551085610696433470e+00 -3.238338892721067008e+00
5.631536126793483810e+00 -3.248863417712137380e+00
5.711986642890533261e+00 -3.269342247373847155e+00
5.792437158987582713e+00 -3.258191342819881431e+00
5.872887675084633052e+00 -3.237675371666714152e+00
5.953338191181682504e+00 -3.263315642596437360e+00
6.033788707278731955e+00 -3.320147348888933259e+00
6.114239223375781407e+00 -3.304975276285757602e+00
6.194689739472831747e+00 -3.287396415328440291e+00
6.275140255569881198e+00 -3.293253829615660155e+00
6.355590771666931538e+00 -3.319612800154155607e+00
6.436041287763980989e+00 -3.345979091077964096e+00
6.516491803861030441e+00 -3.339316075018831320e+00
6.596942319958079892e+00 -3.313117594506123975e+00
6.677392836055131120e+00 -3.304742853227274679e+00
6.757843352152180572e+00 -3.290564933619342547e+00
6.838293868249230023e+00 -3.280376895936481851e+00
6.918744384346279475e+00 -3.284873860762888675e+00
6.999194900443328926e+00 -3.305822025578777801e+00
7.079645416540378378e+00 -3.320324792955957172e+00
7.160095932637429605e+00 -3.321181311490442489e+00
7.240546448734479057e+00 -3.301986435429813405e+00
7.320996964831528508e+00 -3.298277286660062035e+00
7.401447480928577960e+00 -3.303042227516252982e+00
7.481897997025627411e+00 -3.310864106957718711e+00
7.562348513122678639e+00 -3.293248682884867939e+00
7.642799029219728091e+00 -3.277180565857393368e+00
7.723249545316777542e+00 -3.269131679473370244e+00
7.803700061413826994e+00 -3.287641020686518534e+00
7.884150577510876445e+00 -3.323961771432925261e+00
7.964601093607927673e+00 -3.355404380088027771e+00
8.045051609704977125e+00 -3.364633723745630078e+00
8.125502125802025688e+00 -3.366310273943734277e+00
8.205952641899076028e+00 -3.355859491134955075e+00
8.286403157996124591e+00 -3.341401379809660011e+00
8.366853674093176707e+00 -3.334151522619034136e+00
8.447304190190225270e+00 -3.361681357819101823e+00
8.527754706287275610e+00 -3.374872672946793717e+00
8.608205222384324173e+00 -3.395740821520115915e+00
8.688655738481374513e+00 -3.403826846803732931e+00
8.769106254578423076e+00 -3.383685391935062459e+00
8.849556770675475192e+00 -3.317287674150705801e+00
8.930007286772523756e+00 -3.284786940083094464e+00
9.010457802869574095e+00 -3.308252451476293210e+00
9.090908318966622659e+00 -3.356095916987729133e+00
9.171358835063672998e+00 -3.365320114728112877e+00
9.251809351160723338e+00 -3.359752733105776379e+00
9.332259867257773678e+00 -3.355445400072248674e+00
9.412710383354822241e+00 -3.373266003385970269e+00
9.493160899451872581e+00 -3.382421286281462436e+00
9.573611415548921144e+00 -3.368352068762954232e+00
9.654061931645971484e+00 -3.349584021111994048e+00
9.734512447743021823e+00 -3.347624916414643881e+00
9.814962963840072163e+00 -3.372536633519311433e+00
9.895413479937120727e+00 -3.401673575305832919e+00
9.975863996034171066e+00 -3.399745261997854762e+00
1.005631451213121963e+01 -3.370424470290827479e+00
1.013676502822827175e+01 -3.362853209431039936e+00
1.021721554432532031e+01 -3.381116839540069030e+00
1.029766606042237065e+01 -3.391347806352217109e+00
