0.000000000000000000e+00 -1.549019599857431873e-01
8.045051609704977069e-02 -2.074008302407769622e-01
1.609010321940995414e-01 -6.113026299648141038e-01
2.413515482911492982e-01 -1.550019971071196156e+00
3.218020643881990828e-01 -1.863624293249020347e+00
4.022525804852488118e-01 -2.225538651702453130e+00
4.827030965822985964e-01 -2.635300460489476748e+00
5.631536126793483810e-01 -3.003755199933314746e+00
6.436041287763981655e-01 -3.252424537739304178e+00
7.240546448734478391e-01 -3.434224887965014350e+00
8.045051609704976237e-01 -3.582987129589309649e+00
8.849556770675472972e-01 -3.728990507027319268e+00
9.654061931645971928e-01 -3.794519683092093310e+00
1.045856709261647088e+00 -3.779127022370433853e+00
1.126307225358696762e+00 -3.777933569366266120e+00
1.206757741455746435e+00 -3.738501471615773841e+00
1.287208257552796331e+00 -3.664767843628495392e+00
1.367658773649846005e+00 -3.628515918358109715e+00
1.448109289746895678e+00 -3.596085507571455953e+00
1.528559805843945352e+00 -3.550362085310861726e+00
1.609010321940995247e+00 -3.550156846173337044e+00
1.689460838038045143e+00 -3.472536181357783747e+00
1.769911354135094594e+00 -3.365621873772634665e+00
1.850361870232144490e+00 -3.244276210538134642e+00
1.930812386329194386e+00 -3.147510953595914707e+00
2.011262902426244281e+00 -3.104165590450871814e+00
2.091713418523294177e+00 -3.115917847321987733e+00
2.172163934620343628e+00 -3.145858124270803913e+00
2.252614450717393524e+00 -3.158402283642946173e+00
2.333064966814443419e+00 -3.128653518418942792e+00
2.413515482911492871e+00 -3.164313901540336982e+00
2.493965999008542767e+00 -3.236004491972555019e+00
2.574416515105592662e+00 -3.242822540478089266e+00
2.654867031202642558e+00 -3.227147310690598569e+00
2.735317547299692009e+00 -3.249430491841770685e+00
2.815768063396741905e+00 -3.269501201185528227e+00
2.896218579493791356e+00 -3.259588794825147851e+00
2.976669095590841252e+00 -3.277075453772600344e+00
3.057119611687890703e+00 -3.233477968859575835e+00
3.137570127784940599e+00 -3.206016898357149980e+00
3.218020643881990495e+00 -3.207938560390003246e+00
3.298471159979039946e+00 -3.222933157549457306e+00
3.378921676076090286e+00 -3.240583535512094215e+00
3.459372192173139737e+00 -3.240523114956054052e+00
3.539822708270189189e+00 -3.255223286423098550e+00
3.620273224367239528e+00 -3.274293646029120097e+00
3.700723740464288980e+00 -3.255103976861365656e+00
3.781174256561339320e+00 -3.213924264760250171e+00
3.861624772658388771e+00 -3.188724437900832154e+00
3.942075288755438223e+00 -3.173447152511754688e+00
4.022525804852488562e+00 -3.201960160972987524e+00
4.102976320949538014e+00 -3.211711003320971702e+00
4.183426837046588354e+00 -3.233808326622181095e+00
4.263877353143637805e+00 -3.276086648867676754e+00
4.344327869240687257e+00 -3.301192095057194908e+00
4.424778385337737596e+00 -3.267417938460507987e+00
4.505228901434787048e+00 -3.262657009028189226e+00
4.585679417531836499e+00 -3.250241494610813575e+00
4.666129933628886839e+00 -3.233199066436970082e+00
4.746580449725936290e+00 -3.224458369452187334e+00
4.827030965822985742e+00 -3.193646704353554799e+00
4.907481481920036082e+00 -3.162639384281529686e+00
4.987931998017085533e+00 -3.170663515770979490e+00
5.068382514114135873e+00 -3.222718688847518553e+00
5.148833030211185324e+00 -3.276482248018802057e+00
5.229283546308234776e+00 -3.300997703382756221e+00
5.309734062405285115e+00 -3.310145887059688707e+00
5.390184578502334567e+00 -3.287324246341635448e+00
5.470635094599384018e+00 -3.258848107810068395e+00
5.551085610696433470e+00 -3.279790959618784640e+00
5.631536126793483810e+00 -3.314751169738022529e+00
5.711986642890533261e+00 -3.310017606997486705e+00
5.792437158987582713e+00 -3.280279264638225722e+00
5.872887675084633052e+00 -3.296766939273954478e+00
5.953338191181682504e+00 -3.349120578061930420e+00
6.033788707278731955e+00 -3.367851015645139334e+00
6.114239223375781407e+00 -3.350441572945103808e+00
6.194689739472831747e+00 -3.305400653934650546e+00
6.275140255569881198e+00 -3.271590410027325646e+00
6.355590771666931538e+00 -3.300225658299216214e+00
6.436041287763980989e+00 -3.339966801447389777e+00
6.516491803861030441e+00 -3.330394945754038716e+00
6.596942319958079892e+00 -3.322517068004386065e+00
6.677392836055131120e+00 -3.319244316922058236e+00
6.757843352152180572e+00 -3.320149187419810577e+00
6.838293868249230023e+00 -3.326532425824850314e+00
6.918744384346279475e+00 -3.331413619906772983e+00
6.999194900443328926e+00 -3.343533089584938445e+00
7.079645416540378378e+00 -3.364635376061645200e+00
7.160095932637429605e+00 -3.362198329221870452e+00
7.240546448734479057e+00 -3.371676336372723348e+00
7.320996964831528508e+00 -3.384971557145145749e+00
7.401447480928577960e+00 -3.379549300409302237e+00
7.481897997025627411e+00 -3.344006689245721642e+00
7.562348513122678639e+00 -3.307543641822207281e+00
7.642799029219728091e+00 -3.292117749344655397e+00
7.723249545316777542e+00 -3.278165371038231246e+00
7.803700061413826994e+00 -3.298438211301895961e+00
7.884150577510876445e+00 -3.310562582955216104e+00
7.964601093607927673e+00 -3.306153637266495249e+00
8.045051609704977125e+00 -3.307900536219670951e+00
8.125502125802025688e+00 -3.334272380944969694e+00
8.205952641899076028e+00 -3.351240249761770151e+00
8.286403157996124591e+00 -3.351701649832909080e+00
8.366853674093176707e+00 -3.360063911419003180e+00
8.447304190190225270e+00 -3.371551775373740067e+00
8.527754706287275610e+00 -3.398980975932532900e+00
8.608205222384324173e+00 -3.398756063976942077e+00
8.688655738481374513e+00 -3.370964447510337081e+00
8.769106254578423076e+00 -3.342110857664715162e+00
8.849556770675475192e+00 -3.335486103164352567e+00
8.930007286772523756e+00 -3.364328853532788433e+00
9.010457802869574095e+00 -3.371261159982757327e+00
9.090908318966622659e+00 -3.382437217470300350e+00
9.171358835063672998e+00 -3.402224716093625645e+00
9.251809351160723338e+00 -3.440174359945633586e+00
9.332259867257773678e+00 -3.466231678108829151e+00
9.412710383354822241e+00 -3.471709328527685212e+00
9.493160899451872581e+00 -3.451002561664407775e+00
9.573611415548921144e+00 -3.411468202015152773e+00
9.654061931645971484e+00 -3.398162100216235881e+00
9.734512447743021823e+00 -3.422201834965942879e+00
9.814962963840072163e+00 -3.430281043214356895e+00
9.895413479937120727e+00 -3.442661709354664978e+00
9.975863996034171066e+00 -3.462149645006112664e+00
1.005631451213121963e+01 -3.494405791732781097e+00
1.013676502822827175e+01 -3.493368722798424475e+00
1.021721554432532031e+01 -3.458936481767465931e+00
1.029766606042237065e+01 -3.433201980876193105e+00
