0.000000000000000000e+00 -1.549019599857431873e-01
8.045051609704977069e-02 -1.971558823100610647e-01
1.609010321940995414e-01 -5.337429895564224092e-01
2.413515482911492982e-01 -1.452790428339064910e+00
3.218020643881990828e-01 -1.832042120778970329e+00
4.022525804852488118e-01 -2.161335386954422066e+00
4.827030965822985964e-01 -2.615958016798627384e+00
5.631536126793483810e-01 -2.851262299572952408e+00
6.436041287763981655e-01 -3.038227816098853840e+00
7.240546448734478391e-01 -3.209589182344700475e+00
8.045051609704976237e-01 -3.382585624242250955e+00
8.849556770675472972e-01 -3.507141314954405065e+00
9.654061931645971928e-01 -3.670660461355384818e+00
1.045856709261647088e+00 -3.796110954706003682e+00
1.126307225358696762e+00 -3.768956435708784802e+00
1.206757741455746435e+00 -3.685559427502060004e+00
1.287208257552796331e+00 -3.616632449374921343e+00
1.367658773649846005e+00 -3.553028795575607024e+00
1.448109289746895678e+00 -3.512477733649889799e+00
1.528559805843945352e+00 -3.476539596820143352e+00
1.609010321940995247e+00 -3.475367809409974029e+00
1.689460838038045143e+00 -3.453806384319708656e+00
1.769911354135094594e+00 -3.441069457608505910e+00
1.850361870232144490e+00 -3.441398083156675725e+00
1.930812386329194386e+00 -3.423318694250725436e+00
2.011262902426244281e+00 -3.368933302351896586e+00
2.091713418523294177e+00 -3.241322269759386643e+00
2.172163934620343628e+00 -3.186973586808523606e+00
2.252614450717393524e+00 -3.153239924350871082e+00
2.333064966814443419e+00 -3.183488908925815153e+00
2.413515482911492871e+00 -3.253827648315295917e+00
2.493965999008542767e+00 -3.303933693787672432e+00
2.574416515105592662e+00 -3.280167991538613492e+00
2.654867031202642558e+00 -3.266644376754674006e+00
2.735317547299692009e+00 -3.272967694670840366e+00
2.815768063396741905e+00 -3.302781911402365100e+00
2.896218579493791356e+00 -3.314435199938541299e+00
2.976669095590841252e+00 -3.302486240485305036e+00
3.057119611687890703e+00 -3.293232258904831067e+00
3.137570127784940599e+00 -3.259405230727324909e+00
3.218020643881990495e+00 -3.227232887914857518e+00
3.298471159979039946e+00 -3.208738855453246330e+00
3.378921676076090286e+00 -3.194259436351390757e+00
3.459372192173139737e+00 -3.188130648481072082e+00
3.539822708270189189e+00 -3.173201155760321246e+00
3.620273224367239528e+00 -3.154394460424224444e+00
3.700723740464288980e+00 -3.150820146739039984e+00
3.781174256561339320e+00 -3.209338466378752752e+00
3.861624772658388771e+00 -3.234756762170608813e+00
3.942075288755438223e+00 -3.224640987945042170e+00
4.022525804852488562e+00 -3.204435449313878692e+00
4.102976320949538014e+00 -3.222663740279442024e+00
4.183426837046588354e+00 -3.255583380789279335e+00
4.263877353143637805e+00 -3.279047592469355177e+00
4.344327869240687257e+00 -3.296681685791832628e+00
4.424778385337737596e+00 -3.282443387138008095e+00
4.505228901434787048e+00 -3.238286322093159253e+00
4.585679417531836499e+00 -3.197267091354810020e+00
4.666129933628886839e+00 -3.185892877148805979e+00
4.746580449725936290e+00 -3.217088188908832525e+00
4.827030965822985742e+00 -3.264001343832330537e+00
4.907481481920036082e+00 -3.290198422093610020e+00
4.987931998017085533e+00 -3.287579555841647849e+00
5.068382514114135873e+00 -3.288169333740967204e+00
5.148833030211185324e+00 -3.296758977463654094e+00
5.229283546308234776e+00 -3.282572353604133575e+00
5.309734062405285115e+00 -3.249821409392782190e+00
5.390184578502334567e+00 -3.230646150599359778e+00
5.470635094599384018e+00 -3.228750079264578243e+00
5.551085610696433470e+00 -3.229545547814544282e+00
5.631536126793483810e+00 -3.212320639883392559e+00
5.711986642890533261e+00 -3.204249082909407242e+00
5.792437158987582713e+00 -3.193922533629272031e+00
5.872887675084633052e+00 -3.193735102940504778e+00
5.953338191181682504e+00 -3.192677317754091249e+00
6.033788707278731955e+00 -3.195501269580294679e+00
6.114239223375781407e+00 -3.213930142875407459e+00
6.194689739472831747e+00 -3.242763633873533724e+00
6.275140255569881198e+00 -3.278484616064313073e+00
6.355590771666931538e+00 -3.300234684692483267e+00
6.436041287763980989e+00 -3.314028145569191341e+00
6.516491803861030441e+00 -3.334655093449884866e+00
6.596942319958079892e+00 -3.317162262591192512e+00
6.677392836055131120e+00 -3.277335010378687130e+00
6.757843352152180572e+00 -3.241991874272498908e+00
6.838293868249230023e+00 -3.236717953294141914e+00
6.918744384346279475e+00 -3.267191291654721663e+00
6.999194900443328926e+00 -3.287788271384787020e+00
7.079645416540378378e+00 -3.274162379809128609e+00
7.160095932637429605e+00 -3.267361107542663845e+00
7.240546448734479057e+00 -3.281713460581654918e+00
7.320996964831528508e+00 -3.290654177401574731e+00
7.401447480928577960e+00 -3.310235322612679276e+00
7.481897997025627411e+00 -3.307915893350805270e+00
7.562348513122678639e+00 -3.294331778323568827e+00
7.642799029219728091e+00 -3.319403826348854558e+00
7.723249545316777542e+00 -3.356008169930932983e+00
7.803700061413826994e+00 -3.359175913688216664e+00
7.884150577510876445e+00 -3.370924382197669988e+00
7.964601093607927673e+00 -3.367254325040681451e+00
8.045051609704977125e+00 -3.358332345759603932e+00
8.125502125802025688e+00 -3.352050318320413780e+00
8.205952641899076028e+00 -3.348408928782052651e+00
8.286403157996124591e+00 -3.334685220882497969e+00
8.366853674093176707e+00 -3.329031313913547230e+00
8.447304190190225270e+00 -3.327240603889415560e+00
8.527754706287275610e+00 -3.321183335362615008e+00
8.608205222384324173e+00 -3.349169673009635861e+00
8.688655738481374513e+00 -3.355016767893625573e+00
8.769106254578423076e+00 -3.328500286135276820e+00
8.849556770675475192e+00 -3.316531106435573140e+00
8.930007286772523756e+00 -3.316057084602862304e+00
9.010457802869574095e+00 -3.313904026351528032e+00
9.090908318966622659e+00 -3.318188120360037630e+00
9.171358835063672998e+00 -3.343481341042083166e+00
9.251809351160723338e+00 -3.353631010241133747e+00
9.332259867257773678e+00 -3.370148153371189004e+00
9.412710383354822241e+00 -3.369958467289884130e+00
9.493160899451872581e+00 -3.352148957189511780e+00
9.573611415548921144e+00 -3.345136604443355921e+00
9.654061931645971484e+00 -3.374552350663142075e+00
9.734512447743021823e+00 -3.406713877549418346e+00
9.814962963840072163e+00 -3.422260898231694881e+00
9.895413479937120727e+00 -3.428392583038734287e+00
9.975863996034171066e+00 -3.429157107715600894e+00
1.005631451213121963e+01 -3.425268038607289789e+00
1.013676502822827175e+01 -3.410599827330567990e+00
1.021721554432532031e+01 -3.412280836845605680e+00
1.029766606042237065e+01 -3.429332974832999259e+00
