0.000000000000000000e+00 -1.549019599857431873e-01
8.045051609704977069e-02 -1.841455783482423836e-01
1.609010321940995414e-01 -4.473743010890455785e-01
2.413515482911492982e-01 -1.011084483222474351e+00
3.218020643881990828e-01 -1.326729204660392680e+00
4.022525804852488118e-01 -1.613092271647390330e+00
4.827030965822985964e-01 -2.077111618168720586e+00
5.631536126793483810e-01 -2.451910260590610235e+00
6.436041287763981655e-01 -2.584990319882732202e+00
7.240546448734478391e-01 -2.843659268824397568e+00
8.045051609704976237e-01 -3.128288680142618183e+00
8.849556770675472972e-01 -3.249784241720278910e+00
9.654061931645971928e-01 -3.288447202040055917e+00
1.045856709261647088e+00 -3.361768267384063869e+00
1.126307225358696762e+00 -3.435683472379497783e+00
1.206757741455746435e+00 -3.367100263227208234e+00
1.287208257552796331e+00 -3.271179378149144057e+00
1.367658773649846005e+00 -3.214474721241873834e+00
1.448109289746895678e+00 -3.218308358227684796e+00
1.528559805843945352e+00 -3.266222613885557902e+00
1.609010321940995247e+00 -3.294364040807803207e+00
1.689460838038045143e+00 -3.213899119511403057e+00
1.769911354135094594e+00 -3.089168318504258881e+00
1.850361870232144490e+00 -3.003262215544672209e+00
1.930812386329194386e+00 -2.959802746532715023e+00
2.011262902426244281e+00 -2.935110939043555689e+00
2.091713418523294177e+00 -2.892784270401406399e+00
2.172163934620343628e+00 -2.889042978368094872e+00
2.252614450717393524e+00 -2.932988468386886538e+00
2.333064966814443419e+00 -2.988893652134239964e+00
2.413515482911492871e+00 -2.998043143545941813e+00
2.493965999008542767e+00 -2.997738152781970200e+00
2.574416515105592662e+00 -2.951785113494160395e+00
2.654867031202642558e+00 -2.917867825173344531e+00
2.735317547299692009e+00 -2.899732201376598262e+00
2.815768063396741905e+00 -2.903884677855697483e+00
2.896218579493791356e+00 -2.902659322517440188e+00
2.976669095590841252e+00 -2.886244623389489838e+00
3.057119611687890703e+00 -2.910787066081565566e+00
3.137570127784940599e+00 -2.973874322769324507e+00
3.218020643881990495e+00 -3.010720313685481209e+00
3.298471159979039946e+00 -3.058228171731795619e+00
3.378921676076090286e+00 -3.069947204036159949e+00
3.459372192173139737e+00 -3.026796454168042771e+00
3.539822708270189189e+00 -2.975493844140995936e+00
3.620273224367239528e+00 -2.954401498889033473e+00
3.700723740464288980e+00 -2.936399682889675233e+00
3.781174256561339320e+00 -2.905025380009775393e+00
3.861624772658388771e+00 -2.867179606657379587e+00
3.942075288755438223e+00 -2.865494001593330342e+00
4.022525804852488562e+00 -2.893213273715222300e+00
4.102976320949538014e+00 -2.915859298762877305e+00
4.183426837046588354e+00 -2.959948386042537294e+00
4.263877353143637805e+00 -2.984507401809620042e+00
4.344327869240687257e+00 -2.978084449148916679e+00
4.424778385337737596e+00 -2.978062719929361890e+00
4.505228901434787048e+00 -3.016757686835564112e+00
4.585679417531836499e+00 -3.072423268024670584e+00
4.666129933628886839e+00 -3.101216327221011593e+00
4.746580449725936290e+00 -3.104399966608783590e+00
4.827030965822985742e+00 -3.076237326705620667e+00
4.907481481920036082e+00 -3.049216544014373476e+00
4.987931998017085533e+00 -3.027847440630748732e+00
5.068382514114135873e+00 -3.004185652590427136e+00
5.148833030211185324e+00 -2.953293460791764247e+00
5.229283546308234776e+00 -2.915919520091528661e+00
5.309734062405285115e+00 -2.895735248051195310e+00
5.390184578502334567e+00 -2.892666988234526837e+00
5.470635094599384018e+00 -2.896376257194236636e+00
5.551085610696433470e+00 -2.935917755621435976e+00
5.631536126793483810e+00 -2.968614203485469449e+00
5.711986642890533261e+00 -3.002372962031504056e+00
5.792437158987582713e+00 -3.000552885224470945e+00
5.872887675084633052e+00 -2.988065691865875895e+00
5.953338191181682504e+00 -2.955335082278883085e+00
6.033788707278731955e+00 -2.935837152781413995e+00
6.114239223375781407e+00 -2.935009120094028923e+00
6.194689739472831747e+00 -2.971638368810536779e+00
6.275140255569881198e+00 -2.984957163754092591e+00
6.355590771666931538e+00 -2.975526914137188061e+00
6.436041287763980989e+00 -2.968931578490825007e+00
6.516491803861030441e+00 -2.968471669878150809e+00
6.596942319958079892e+00 -2.942833028310706034e+00
6.677392836055131120e+00 -2.924727027308841709e+00
6.757843352152180572e+00 -2.930831046462849088e+00
6.838293868249230023e+00 -2.935242281504224948e+00
6.918744384346279475e+00 -2.942136689646431602e+00
6.999194900443328926e+00 -2.960902033715070658e+00
7.079645416540378378e+00 -3.007512115547406939e+00
7.160095932637429605e+00 -3.048287227708625036e+00
7.240546448734479057e+00 -3.041299973194009354e+00
7.320996964831528508e+00 -3.024374072084648368e+00
7.401447480928577960e+00 -3.008393744492797062e+00
7.481897997025627411e+00 -3.010109148311638450e+00
7.562348513122678639e+00 -3.006595584425287626e+00
7.642799029219728091e+00 -3.013518827911333187e+00
7.723249545316777542e+00 -2.998251668146052040e+00
7.803700061413826994e+00 -2.998373909204258947e+00
7.884150577510876445e+00 -2.996121351838636482e+00
7.964601093607927673e+00 -3.010997049663321157e+00
8.045051609704977125e+00 -3.030079458276774496e+00
8.125502125802025688e+00 -3.028227771044000871e+00
8.205952641899076028e+00 -3.015910421866337732e+00
8.286403157996124591e+00 -3.013732170866276316e+00
8.366853674093176707e+00 -3.012277244172171464e+00
8.447304190190225270e+00 -3.015189267855929334e+00
8.527754706287275610e+00 -3.040926400435886467e+00
8.608205222384324173e+00 -3.052742501417766263e+00
8.688655738481374513e+00 -3.049616834603408488e+00
8.769106254578423076e+00 -3.032814481939356988e+00
8.849556770675475192e+00 -3.018505128328416554e+00
8.930007286772523756e+00 -3.007893865439423386e+00
9.010457802869574095e+00 -2.991607919081207267e+00
9.090908318966622659e+00 -3.010957517384216242e+00
9.171358835063672998e+00 -3.023155279776108095e+00
9.251809351160723338e+00 -3.030543506170544354e+00
9.332259867257773678e+00 -3.034835560610054550e+00
9.412710383354822241e+00 -3.054248201973110532e+00
9.493160899451872581e+00 -3.093813086982773353e+00
9.573611415548921144e+00 -3.125045601964902442e+00
9.654061931645971484e+00 -3.127741823585087122e+00
9.734512447743021823e+00 -3.129043480278043354e+00
9.814962963840072163e+00 -3.117893810335633731e+00
9.895413479937120727e+00 -3.090623295331643483e+00
9.975863996034171066e+00 -3.073949117132085629e+00
1.005631451213121963e+01 -3.075024968577833917e+00
1.013676502822827175e+01 -3.087483580823375373e+00
1.021721554432532031e+01 -3.099198743196967420e+00
1.029766606042237065e+01 -3.110239600829126871e+00
