0.000000000000000000e+00 -1.549019599857431873e-01
8.045051609704977069e-02 -1.859833027656052906e-01
1.609010321940995414e-01 -4.940670248211587179e-01
2.413515482911492982e-01 -1.278028554838035014e+00
3.218020643881990828e-01 -1.835602979210178676e+00
4.022525804852488118e-01 -1.993796931816319784e+00
4.827030965822985964e-01 -2.209854417083180866e+00
5.631536126793483810e-01 -2.442098291721957359e+00
6.436041287763981655e-01 -2.679004493055840541e+00
7.240546448734478391e-01 -2.878811191320528540e+00
8.045051609704976237e-01 -2.970643905946283692e+00
8.849556770675472972e-01 -3.015104256982632513e+00
9.654061931645971928e-01 -3.044170452355659862e+00
1.045856709261647088e+00 -3.138238650036314414e+00
1.126307225358696762e+00 -3.264262522713349490e+00
1.206757741455746435e+00 -3.358243788742366398e+00
1.287208257552796331e+00 -3.478850635637882771e+00
1.367658773649846005e+00 -3.524536811245652324e+00
1.448109289746895678e+00 -3.451534006703589785e+00
1.528559805843945352e+00 -3.346636105321245669e+00
1.609010321940995247e+00 -3.256241222998202289e+00
1.689460838038045143e+00 -3.223646519414909761e+00
1.769911354135094594e+00 -3.185041668418854499e+00
1.850361870232144490e+00 -3.115272276496916071e+00
1.930812386329194386e+00 -3.015999746253712033e+00
2.011262902426244281e+00 -2.961862730161602286e+00
2.091713418523294177e+00 -2.919055698558165268e+00
2.172163934620343628e+00 -2.908858145018723196e+00
2.252614450717393524e+00 -2.913526502418249731e+00
2.333064966814443419e+00 -2.921466992127437212e+00
2.413515482911492871e+00 -2.904984910611898563e+00
2.493965999008542767e+00 -2.911794448423434822e+00
2.574416515105592662e+00 -2.967255207808432438e+00
2.654867031202642558e+00 -2.992163404400974169e+00
2.735317547299692009e+00 -2.949974818518941166e+00
2.815768063396741905e+00 -2.903681191337035727e+00
2.896218579493791356e+00 -2.911353174505002528e+00
2.976669095590841252e+00 -2.961840547111749711e+00
3.057119611687890703e+00 -2.986619268859687093e+00
3.137570127784940599e+00 -2.948960975731526268e+00
3.218020643881990495e+00 -2.908349245145087636e+00
3.298471159979039946e+00 -2.905285898221842800e+00
3.378921676076090286e+00 -2.904840786021779753e+00
3.459372192173139737e+00 -2.920276580209079320e+00
3.539822708270189189e+00 -2.930376484353168109e+00
3.620273224367239528e+00 -2.921849696353188808e+00
3.700723740464288980e+00 -2.937904358582818620e+00
3.781174256561339320e+00 -2.930296003918312575e+00
3.861624772658388771e+00 -2.910782466983609762e+00
3.942075288755438223e+00 -2.894939317647941657e+00
4.022525804852488562e+00 -2.892453289708293074e+00
4.102976320949538014e+00 -2.890979480494001663e+00
4.183426837046588354e+00 -2.899334464328784389e+00
4.263877353143637805e+00 -2.929094034236683797e+00
4.344327869240687257e+00 -2.960934995234546285e+00
4.424778385337737596e+00 -2.963345852040488282e+00
4.505228901434787048e+00 -2.946783151773426201e+00
4.585679417531836499e+00 -2.933212323139453126e+00
4.666129933628886839e+00 -2.940188923568208157e+00
4.746580449725936290e+00 -2.951771992328847016e+00
4.827030965822985742e+00 -2.969104864437450697e+00
4.907481481920036082e+00 -2.974879679140510103e+00
4.987931998017085533e+00 -2.958312255250568068e+00
5.068382514114135873e+00 -2.933348984505256496e+00
5.148833030211185324e+00 -2.945781696402810290e+00
5.229283546308234776e+00 -2.974371237533292245e+00
5.309734062405285115e+00 -2.999119220985754897e+00
5.390184578502334567e+00 -2.984362149507155948e+00
5.470635094599384018e+00 -2.962227063228624946e+00
5.551085610696433470e+00 -2.988593371149827593e+00
5.631536126793483810e+00 -3.026500885661087992e+00
5.711986642890533261e+00 -3.047680297206973421e+00
5.792437158987582713e+00 -3.035045057755135556e+00
5.872887675084633052e+00 -3.022596907042231607e+00
5.953338191181682504e+00 -3.001200831923163559e+00
6.033788707278731955e+00 -2.962814258251975197e+00
6.114239223375781407e+00 -2.972712430918341919e+00
6.194689739472831747e+00 -3.017769283002843750e+00
6.275140255569881198e+00 -3.038229346606001080e+00
6.355590771666931538e+00 -3.037907445685068542e+00
6.436041287763980989e+00 -3.048410410363120437e+00
6.516491803861030441e+00 -3.064799813212160551e+00
6.596942319958079892e+00 -3.060729154032921784e+00
6.677392836055131120e+00 -3.036337426407255791e+00
6.757843352152180572e+00 -3.023841092498012362e+00
6.838293868249230023e+00 -3.005252151963384133e+00
6.918744384346279475e+00 -2.979145784570615962e+00
6.999194900443328926e+00 -2.958531647621094773e+00
7.079645416540378378e+00 -2.954474183248698704e+00
7.160095932637429605e+00 -2.966107055187737096e+00
7.240546448734479057e+00 -2.973508750861189043e+00
7.320996964831528508e+00 -2.971802985931026875e+00
7.401447480928577960e+00 -2.960736832996713197e+00
7.481897997025627411e+00 -2.968582122334748608e+00
7.562348513122678639e+00 -3.002727921365382802e+00
7.642799029219728091e+00 -3.039037416216777032e+00
7.723249545316777542e+00 -3.053952781244232639e+00
7.803700061413826994e+00 -3.064332181032736191e+00
7.884150577510876445e+00 -3.076436977037192211e+00
7.964601093607927673e+00 -3.081064015595966765e+00
8.045051609704977125e+00 -3.081824814927399458e+00
8.125502125802025688e+00 -3.079138969556611372e+00
8.205952641899076028e+00 -3.077190725082639133e+00
8.286403157996124591e+00 -3.072259387578733847e+00
8.366853674093176707e+00 -3.054151093329231514e+00
8.447304190190225270e+00 -3.039213875320925684e+00
8.527754706287275610e+00 -3.059404429765501199e+00
8.608205222384324173e+00 -3.068186615356260916e+00
8.688655738481374513e+00 -3.072771812414021309e+00
8.769106254578423076e+00 -3.075615585310400135e+00
8.849556770675475192e+00 -3.039726597650879825e+00
8.930007286772523756e+00 -2.999150124284574392e+00
9.010457802869574095e+00 -3.011359990119953700e+00
9.090908318966622659e+00 -3.041374856609307287e+00
9.171358835063672998e+00 -3.060169381804422883e+00
9.251809351160723338e+00 -3.061879688493607699e+00
9.332259867257773678e+00 -3.067432717648810314e+00
9.412710383354822241e+00 -3.075599444549899975e+00
9.493160899451872581e+00 -3.098815321172078807e+00
9.573611415548921144e+00 -3.099618361479208772e+00
9.654061931645971484e+00 -3.107956782109336125e+00
9.734512447743021823e+00 -3.130349041797642951e+00
9.814962963840072163e+00 -3.103369360249888853e+00
9.895413479937120727e+00 -3.074679194370397273e+00
9.975863996034171066e+00 -3.063754939229922147e+00
1.005631451213121963e+01 -3.063898086348122440e+00
1.013676502822827175e+01 -3.067676142029411412e+00
1.021721554432532031e+01 -3.100335157078233816e+00
1.029766606042237065e+01 -3.141140936521075400e+00
