0.000000000000000000e+00 -1.549019599857431873e-01
8.045051609704977069e-02 -3.811621137703009587e-01
1.609010321940995414e-01 -1.068788768230857444e+00
2.413515482911492982e-01 -2.747227479672273542e+00
3.218020643881990828e-01 -3.121570653850502364e+00
4.022525804852488118e-01 -3.831484322625184014e+00
4.827030965822985964e-01 -4.660473973291228589e+00
5.631536126793483810e-01 -5.196223994607760410e+00
6.436041287763981655e-01 -5.519006700315341796e+00
7.240546448734478391e-01 -5.848100808689800978e+00
8.045051609704976237e-01 -6.115691418377108057e+00
8.849556770675472972e-01 -6.225182374868706958e+00
9.654061931645971928e-01 -6.321348403122450499e+00
1.045856709261647088e+00 -6.349388488771377403e+00
1.126307225358696762e+00 -6.283748306227163738e+00
1.206757741455746435e+00 -6.313892720935615266e+00
1.287208257552796331e+00 -6.347653465239250004e+00
1.367658773649846005e+00 -6.357018350844616528e+00
1.448109289746895678e+00 -6.318803067143893948e+00
1.528559805843945352e+00 -6.296353880980677609e+00
1.609010321940995247e+00 -6.238668706281870868e+00
1.689460838038045143e+00 -6.149863006045364955e+00
1.769911354135094594e+00 -6.085431162963383933e+00
1.850361870232144490e+00 -5.986117333830991427e+00
1.930812386329194386e+00 -5.887117954401832165e+00
2.011262902426244281e+00 -5.826818229415280825e+00
2.091713418523294177e+00 -5.844460874916402204e+00
2.172163934620343628e+00 -5.863639846110412890e+00
2.252614450717393524e+00 -5.786777134334998962e+00
2.333064966814443419e+00 -5.676796731270943752e+00
2.413515482911492871e+00 -5.638417142800983939e+00
2.493965999008542767e+00 -5.672281883395910995e+00
2.574416515105592662e+00 -5.751055617193071789e+00
2.654867031202642558e+00 -5.783141817812606611e+00
2.735317547299692009e+00 -5.852115531078914579e+00
2.815768063396741905e+00 -5.922376352638335284e+00
2.896218579493791356e+00 -5.990401346857086473e+00
2.976669095590841252e+00 -6.049202008094775707e+00
3.057119611687890703e+00 -6.127719418215946234e+00
3.137570127784940599e+00 -6.080141841207042042e+00
3.218020643881990495e+00 -5.892813646146601414e+00
3.298471159979039946e+00 -5.787408940896278331e+00
3.378921676076090286e+00 -5.660194871072249612e+00
3.459372192173139737e+00 -5.613512293992149793e+00
3.539822708270189189e+00 -5.610533870961256220e+00
3.620273224367239528e+00 -5.664992204450542523e+00
3.700723740464288980e+00 -5.702949832940742425e+00
3.781174256561339320e+00 -5.729926750003587976e+00
3.861624772658388771e+00 -5.753016592474088142e+00
3.942075288755438223e+00 -5.814548835849280728e+00
4.022525804852488562e+00 -5.850778833692045211e+00
4.102976320949538014e+00 -5.853122707948122283e+00
4.183426837046588354e+00 -5.823051805921092949e+00
4.263877353143637805e+00 -5.794779008905197593e+00
4.344327869240687257e+00 -5.840543428831006523e+00
4.424778385337737596e+00 -5.895041641569743973e+00
4.505228901434787048e+00 -5.953394780606696912e+00
4.585679417531836499e+00 -5.966176161019201452e+00
4.666129933628886839e+00 -5.932942242083299789e+00
4.746580449725936290e+00 -5.902911923879393008e+00
4.827030965822985742e+00 -5.957334650970520507e+00
4.907481481920036082e+00 -5.944452941093170573e+00
4.987931998017085533e+00 -5.877278644829568854e+00
5.068382514114135873e+00 -5.860582577953344696e+00
5.148833030211185324e+00 -5.865966127208709580e+00
5.229283546308234776e+00 -5.830600455418410988e+00
5.309734062405285115e+00 -5.775276680789866113e+00
5.390184578502334567e+00 -5.787086718901902849e+00
5.470635094599384018e+00 -5.834709261986123607e+00
5.551085610696433470e+00 -5.932385980168146666e+00
5.631536126793483810e+00 -6.003860434899023879e+00
5.711986642890533261e+00 -6.023607938592790312e+00
5.792437158987582713e+00 -6.061941582652801586e+00
5.872887675084633052e+00 -6.119077900710840012e+00
5.953338191181682504e+00 -6.152648814657420751e+00
6.033788707278731955e+00 -6.113318130636042014e+00
6.114239223375781407e+00 -6.037381399469117227e+00
6.194689739472831747e+00 -5.960681170001842943e+00
6.275140255569881198e+00 -5.945526687890644979e+00
6.355590771666931538e+00 -6.010283851736618388e+00
6.436041287763980989e+00 -6.089955453497537974e+00
6.516491803861030441e+00 -6.148879042085607871e+00
6.596942319958079892e+00 -6.105250191883469846e+00
6.677392836055131120e+00 -6.014142479347581727e+00
6.757843352152180572e+00 -5.970223455194033413e+00
6.838293868249230023e+00 -5.990447875904211017e+00
6.918744384346279475e+00 -5.963322251018096765e+00
6.999194900443328926e+00 -5.956896045909501503e+00
7.079645416540378378e+00 -5.953383967794430909e+00
7.160095932637429605e+00 -5.964163297495583826e+00
7.240546448734479057e+00 -6.002628905346409027e+00
7.320996964831528508e+00 -6.010527741039489058e+00
7.401447480928577960e+00 -6.028556318885807563e+00
7.481897997025627411e+00 -6.099080611940792984e+00
7.562348513122678639e+00 -6.190627702336831462e+00
7.642799029219728091e+00 -6.220315361610945004e+00
7.723249545316777542e+00 -6.197837472823892746e+00
7.803700061413826994e+00 -6.230947978867142467e+00
7.884150577510876445e+00 -6.220201988593822229e+00
7.964601093607927673e+00 -6.144166358676842243e+00
8.045051609704977125e+00 -6.060700158881344279e+00
8.125502125802025688e+00 -6.029442800640456568e+00
8.205952641899076028e+00 -6.060061582854962658e+00
8.286403157996124591e+00 -6.091811990030985058e+00
8.366853674093176707e+00 -6.118596539941384194e+00
8.447304190190225270e+00 -6.157519985071467694e+00
8.527754706287275610e+00 -6.131591928827828220e+00
8.608205222384324173e+00 -6.156185996911147207e+00
8.688655738481374513e+00 -6.201264007795620259e+00
8.769106254578423076e+00 -6.164011280885776323e+00
8.849556770675475192e+00 -6.116262945740774448e+00
8.930007286772523756e+00 -6.067613077275002986e+00
9.010457802869574095e+00 -6.070594349994963501e+00
9.090908318966622659e+00 -6.070367274216807552e+00
9.171358835063672998e+00 -6.100126982826417965e+00
9.251809351160723338e+00 -6.139651289691491876e+00
9.332259867257773678e+00 -6.168930804643912857e+00
9.412710383354822241e+00 -6.154271884086951694e+00
9.493160899451872581e+00 -6.136982808731104022e+00
9.573611415548921144e+00 -6.106351322294822914e+00
9.654061931645971484e+00 -6.093659332807601636e+00
9.734512447743021823e+00 -6.126275679767661408e+00
9.814962963840072163e+00 -6.210770831799520941e+00
9.895413479937120727e+00 -6.277105318329299521e+00
9.975863996034171066e+00 -6.259515028301393613e+00
1.005631451213121963e+01 -6.250038473003404427e+00
1.013676502822827175e+01 -6.218144495374388292e+00
1.021721554432532031e+01 -6.250788025085213917e+00
1.029766606042237065e+01 -6.248585175207304054e+00
