0.000000000000000000e+00 -1.549019599857431873e-01
8.045051609704977069e-02 -2.044058969516616975e-01
1.609010321940995414e-01 -5.847849960422736304e-01
2.413515482911492982e-01 -1.300284023615488449e+00
3.218020643881990828e-01 -1.437155510118307111e+00
4.022525804852488118e-01 -1.618168448571198015e+00
4.827030965822985964e-01 -2.015671735910506523e+00
5.631536126793483810e-01 -2.340307231952055034e+00
6.436041287763981655e-01 -2.522551986156754467e+00
7.240546448734478391e-01 -2.695669389546161199e+00
8.045051609704976237e-01 -2.858979411642482482e+00
8.849556770675472972e-01 -3.006882486886787387e+00
9.654061931645971928e-01 -3.117056323336047985e+00
1.045856709261647088e+00 -3.154405281978436726e+00
1.126307225358696762e+00 -3.206884457742245953e+00
1.206757741455746435e+00 -3.242129535971999044e+00
1.287208257552796331e+00 -3.170267365107665380e+00
1.367658773649846005e+00 -3.144996177491840239e+00
1.448109289746895678e+00 -3.217386493606040343e+00
1.528559805843945352e+00 -3.247282668853071819e+00
1.609010321940995247e+00 -3.175846195104064407e+00
1.689460838038045143e+00 -3.088282373955888005e+00
1.769911354135094594e+00 -3.026525470702444043e+00
1.850361870232144490e+00 -3.002367282698154671e+00
1.930812386329194386e+00 -2.978931795328616516e+00
2.011262902426244281e+00 -2.938787406154426129e+00
2.091713418523294177e+00 -2.915354674538148227e+00
2.172163934620343628e+00 -2.950561098136567306e+00
2.252614450717393524e+00 -2.944481662070216554e+00
2.333064966814443419e+00 -2.915370544244928031e+00
2.413515482911492871e+00 -2.893324745423029309e+00
2.493965999008542767e+00 -2.886218297249429909e+00
2.574416515105592662e+00 -2.896768856299244188e+00
2.654867031202642558e+00 -2.919088449675029562e+00
2.735317547299692009e+00 -2.889376939441105741e+00
2.815768063396741905e+00 -2.861421373789994949e+00
2.896218579493791356e+00 -2.878435526295764824e+00
2.976669095590841252e+00 -2.884630871687760223e+00
3.057119611687890703e+00 -2.885939914254238570e+00
3.137570127784940599e+00 -2.912545960049049310e+00
3.218020643881990495e+00 -2.969677309301270718e+00
3.298471159979039946e+00 -2.981681594909341371e+00
3.378921676076090286e+00 -2.959388319387873612e+00
3.459372192173139737e+00 -2.948803307286706588e+00
3.539822708270189189e+00 -2.931753482217101858e+00
3.620273224367239528e+00 -2.909633696539014824e+00
3.700723740464288980e+00 -2.900708273743293653e+00
3.781174256561339320e+00 -2.910578217071559504e+00
3.861624772658388771e+00 -2.924944606406969072e+00
3.942075288755438223e+00 -2.931237984921525985e+00
4.022525804852488562e+00 -2.921205598735681086e+00
4.102976320949538014e+00 -2.930171072550917799e+00
4.183426837046588354e+00 -2.969707532292226837e+00
4.263877353143637805e+00 -3.000276385805737966e+00
4.344327869240687257e+00 -3.006443133521208733e+00
4.424778385337737596e+00 -3.022453264815388341e+00
4.505228901434787048e+00 -3.045576129077786298e+00
4.585679417531836499e+00 -3.043433372014276994e+00
4.666129933628886839e+00 -3.027708628919842937e+00
4.746580449725936290e+00 -3.019699461170366472e+00
4.827030965822985742e+00 -2.994219016938605815e+00
4.907481481920036082e+00 -2.964616191255430966e+00
4.987931998017085533e+00 -2.953087606694583922e+00
5.068382514114135873e+00 -2.935706954454042172e+00
5.148833030211185324e+00 -2.935768448748675929e+00
5.229283546308234776e+00 -2.956489978671759111e+00
5.309734062405285115e+00 -2.976923397799158710e+00
5.390184578502334567e+00 -2.954129070120634637e+00
5.470635094599384018e+00 -2.894737814146990385e+00
5.551085610696433470e+00 -2.878923252662191956e+00
5.631536126793483810e+00 -2.897621871165763530e+00
5.711986642890533261e+00 -2.916556362476783182e+00
5.792437158987582713e+00 -2.951794900325682480e+00
5.872887675084633052e+00 -2.964786450475708879e+00
5.953338191181682504e+00 -2.968530213294354514e+00
6.033788707278731955e+00 -2.995433038790134894e+00
6.114239223375781407e+00 -3.027831087881566852e+00
6.194689739472831747e+00 -3.016535771536763555e+00
6.275140255569881198e+00 -2.994944016005822718e+00
6.355590771666931538e+00 -3.005855211093134027e+00
6.436041287763980989e+00 -3.026443724981078720e+00
6.516491803861030441e+00 -3.032842647708529960e+00
6.596942319958079892e+00 -3.020784007373475966e+00
6.677392836055131120e+00 -3.030233529395212955e+00
6.757843352152180572e+00 -3.015177747722370682e+00
6.838293868249230023e+00 -2.972653683185076279e+00
6.918744384346279475e+00 -2.963467499094946334e+00
6.999194900443328926e+00 -2.997815550913624616e+00
7.079645416540378378e+00 -2.994821027021667081e+00
7.160095932637429605e+00 -2.976780288584663037e+00
7.240546448734479057e+00 -2.967530625724479787e+00
7.320996964831528508e+00 -2.988967634876575019e+00
7.401447480928577960e+00 -2.987965886807652183e+00
7.481897997025627411e+00 -2.991280349449227050e+00
7.562348513122678639e+00 -3.004711588512392506e+00
7.642799029219728091e+00 -3.034840061402829470e+00
7.723249545316777542e+00 -3.040630653483929802e+00
7.803700061413826994e+00 -3.049856105871066259e+00
7.884150577510876445e+00 -3.054293428473965122e+00
7.964601093607927673e+00 -3.063047111391857147e+00
8.045051609704977125e+00 -3.038501643318852974e+00
8.125502125802025688e+00 -3.013880212012840509e+00
8.205952641899076028e+00 -3.023494536987847869e+00
8.286403157996124591e+00 -3.031678872181183149e+00
8.366853674093176707e+00 -3.035821122945466577e+00
8.447304190190225270e+00 -3.033671554440598328e+00
8.527754706287275610e+00 -3.045934145365989831e+00
8.608205222384324173e+00 -3.052650431314008372e+00
8.688655738481374513e+00 -3.047345486394952729e+00
8.769106254578423076e+00 -3.052908542061142594e+00
8.849556770675475192e+00 -3.077407056811188202e+00
8.930007286772523756e+00 -3.091791691067197423e+00
9.010457802869574095e+00 -3.088699080842091327e+00
9.090908318966622659e+00 -3.093900996354018940e+00
9.171358835063672998e+00 -3.098068683261571810e+00
9.251809351160723338e+00 -3.074613872119069669e+00
9.332259867257773678e+00 -3.063100742153650469e+00
9.412710383354822241e+00 -3.070035812447114765e+00
9.493160899451872581e+00 -3.095363639483328377e+00
9.573611415548921144e+00 -3.107460453263171107e+00
9.654061931645971484e+00 -3.105293697373735284e+00
9.734512447743021823e+00 -3.092715646736636348e+00
9.814962963840072163e+00 -3.074769721184556825e+00
9.895413479937120727e+00 -3.077611677924418476e+00
9.975863996034171066e+00 -3.098090884588305283e+00
1.005631451213121963e+01 -3.108027685436764553e+00
1.013676502822827175e+01 -3.111553500987999765e+00
1.021721554432532031e+01 -3.114956505832037426e+00
1.029766606042237065e+01 -3.112192607392077814e+00
