0.000000000000000000e+00 -1.549019599857431873e-01
8.045051609704977069e-02 -2.053155624131847434e-01
1.609010321940995414e-01 -5.379879271795316997e-01
2.413515482911492982e-01 -1.729236026380422953e+00
3.218020643881990828e-01 -1.999764633561110339e+00
4.022525804852488118e-01 -1.931471022634058565e+00
4.827030965822985964e-01 -2.226289205173168639e+00
5.631536126793483810e-01 -2.719216386136109609e+00
6.436041287763981655e-01 -3.045561131796560961e+00
7.240546448734478391e-01 -3.123998987829556206e+00
8.045051609704976237e-01 -3.220557418917396220e+00
8.849556770675472972e-01 -3.372312881992439504e+00
9.654061931645971928e-01 -3.588456718284651625e+00
1.045856709261647088e+00 -3.687483004933191921e+00
1.126307225358696762e+00 -3.623166555618400952e+00
1.206757741455746435e+00 -3.491648341944915579e+00
1.287208257552796331e+00 -3.422491542070174475e+00
1.367658773649846005e+00 -3.429560034880200003e+00
1.448109289746895678e+00 -3.441879792757203571e+00
1.528559805843945352e+00 -3.431801402846335503e+00
1.609010321940995247e+00 -3.350502841699359635e+00
1.689460838038045143e+00 -3.272484533821170771e+00
1.769911354135094594e+00 -3.184287708741231793e+00
1.850361870232144490e+00 -3.136205938767469004e+00
1.930812386329194386e+00 -3.140545499496511184e+00
2.011262902426244281e+00 -3.191053408635306621e+00
2.091713418523294177e+00 -3.198486652310631229e+00
2.172163934620343628e+00 -3.131105797658423562e+00
2.252614450717393524e+00 -3.100142287434167976e+00
2.333064966814443419e+00 -3.125678166469053387e+00
2.413515482911492871e+00 -3.166370090896510447e+00
2.493965999008542767e+00 -3.137673042339620189e+00
2.574416515105592662e+00 -3.102002813814569659e+00
2.654867031202642558e+00 -3.105989871910281863e+00
2.735317547299692009e+00 -3.122101122468952994e+00
2.815768063396741905e+00 -3.120168561640367155e+00
2.896218579493791356e+00 -3.097859777196889208e+00
2.976669095590841252e+00 -3.121816767254796066e+00
3.057119611687890703e+00 -3.162947214410943175e+00
3.137570127784940599e+00 -3.166363772735211413e+00
3.218020643881990495e+00 -3.149287497842943928e+00
3.298471159979039946e+00 -3.112125453162661870e+00
3.378921676076090286e+00 -3.090356578762950779e+00
3.459372192173139737e+00 -3.072879632070458111e+00
3.539822708270189189e+00 -3.058555294551742243e+00
3.620273224367239528e+00 -3.072585068345215831e+00
3.700723740464288980e+00 -3.121223865653921958e+00
3.781174256561339320e+00 -3.150931837914171307e+00
3.861624772658388771e+00 -3.141379950191334647e+00
3.942075288755438223e+00 -3.119859240537967704e+00
4.022525804852488562e+00 -3.132859568734989608e+00
4.102976320949538014e+00 -3.137756189391277761e+00
4.183426837046588354e+00 -3.145593400868859302e+00
4.263877353143637805e+00 -3.138883719145963092e+00
4.344327869240687257e+00 -3.120553704644482895e+00
4.424778385337737596e+00 -3.101376528977042746e+00
4.505228901434787048e+00 -3.078388049833114870e+00
4.585679417531836499e+00 -3.071157010306855284e+00
4.666129933628886839e+00 -3.087865465758192762e+00
4.746580449725936290e+00 -3.135574177366650339e+00
4.827030965822985742e+00 -3.167768362713239139e+00
4.907481481920036082e+00 -3.176624007986804443e+00
4.987931998017085533e+00 -3.169842210890611245e+00
5.068382514114135873e+00 -3.166214152336649157e+00
5.148833030211185324e+00 -3.177061372534040196e+00
5.229283546308234776e+00 -3.172799520510813487e+00
5.309734062405285115e+00 -3.158281923175039196e+00
5.390184578502334567e+00 -3.144114335366906765e+00
5.470635094599384018e+00 -3.130838719956730909e+00
5.551085610696433470e+00 -3.155482674624404016e+00
5.631536126793483810e+00 -3.192957923019192901e+00
5.711986642890533261e+00 -3.206832873509369186e+00
5.792437158987582713e+00 -3.149661991467126665e+00
5.872887675084633052e+00 -3.115164010650507187e+00
5.953338191181682504e+00 -3.124615824815963006e+00
6.033788707278731955e+00 -3.180585902555765010e+00
6.114239223375781407e+00 -3.214693338377967002e+00
6.194689739472831747e+00 -3.217165465310630967e+00
6.275140255569881198e+00 -3.203071696790714906e+00
6.355590771666931538e+00 -3.193182647602989199e+00
6.436041287763980989e+00 -3.179810891719496713e+00
6.516491803861030441e+00 -3.142592580830279481e+00
6.596942319958079892e+00 -3.128367237160305070e+00
6.677392836055131120e+00 -3.121868553048944062e+00
6.757843352152180572e+00 -3.116460993490993481e+00
6.838293868249230023e+00 -3.138306655468715345e+00
6.918744384346279475e+00 -3.187842397371829062e+00
6.999194900443328926e+00 -3.203413566494658582e+00
7.079645416540378378e+00 -3.184475739976394326e+00
7.160095932637429605e+00 -3.210499203726505435e+00
7.240546448734479057e+00 -3.257459921213750054e+00
7.320996964831528508e+00 -3.271230399895204588e+00
7.401447480928577960e+00 -3.245622678531704608e+00
7.481897997025627411e+00 -3.233771983704464503e+00
7.562348513122678639e+00 -3.246825277789205710e+00
7.642799029219728091e+00 -3.242971703794269800e+00
7.723249545316777542e+00 -3.219785781790537094e+00
7.803700061413826994e+00 -3.196347309921484747e+00
7.884150577510876445e+00 -3.189519468139586866e+00
7.964601093607927673e+00 -3.165006679560839142e+00
8.045051609704977125e+00 -3.148941840832466088e+00
8.125502125802025688e+00 -3.154551297711980951e+00
8.205952641899076028e+00 -3.178600683840195895e+00
8.286403157996124591e+00 -3.189791869049505735e+00
8.366853674093176707e+00 -3.187421139147682325e+00
8.447304190190225270e+00 -3.183626881981084455e+00
8.527754706287275610e+00 -3.212599285895440637e+00
8.608205222384324173e+00 -3.258287184024498018e+00
8.688655738481374513e+00 -3.268126226581212102e+00
8.769106254578423076e+00 -3.253253471932637808e+00
8.849556770675475192e+00 -3.226582595721090296e+00
8.930007286772523756e+00 -3.219988952527867987e+00
9.010457802869574095e+00 -3.266290734489626146e+00
9.090908318966622659e+00 -3.289011691114393177e+00
9.171358835063672998e+00 -3.282464155879143419e+00
9.251809351160723338e+00 -3.252418909920005596e+00
9.332259867257773678e+00 -3.218778808272532377e+00
9.412710383354822241e+00 -3.217312029136684792e+00
9.493160899451872581e+00 -3.262614216535523415e+00
9.573611415548921144e+00 -3.291433584172448246e+00
9.654061931645971484e+00 -3.285050600283006883e+00
9.734512447743021823e+00 -3.295084247835836422e+00
9.814962963840072163e+00 -3.319680980619876820e+00
9.895413479937120727e+00 -3.338204051553575802e+00
9.975863996034171066e+00 -3.331820484098579893e+00
1.005631451213121963e+01 -3.328969267438377067e+00
1.013676502822827175e+01 -3.335190798760668152e+00
1.021721554432532031e+01 -3.320382862350550024e+00
1.029766606042237065e+01 -3.297354721360870045e+00
