0.000000000000000000e+00 -1.549019599857431873e-01
8.045051609704977069e-02 -1.856853173248798894e-01
1.609010321940995414e-01 -4.932472592660474553e-01
2.413515482911492982e-01 -1.310279942812115239e+00
3.218020643881990828e-01 -1.897886486820217655e+00
4.022525804852488118e-01 -2.234386501363368804e+00
4.827030965822985964e-01 -2.675521467489292426e+00
5.631536126793483810e-01 -3.034572097013646275e+00
6.436041287763981655e-01 -3.215352164925279865e+00
7.240546448734478391e-01 -3.285493578315080487e+00
8.045051609704976237e-01 -3.320270763318913687e+00
8.849556770675472972e-01 -3.323313249020622084e+00
9.654061931645971928e-01 -3.373405525338370570e+00
1.045856709261647088e+00 -3.479344718747614085e+00
1.126307225358696762e+00 -3.574067865295319280e+00
1.206757741455746435e+00 -3.540693208577403883e+00
1.287208257552796331e+00 -3.487873651365800409e+00
1.367658773649846005e+00 -3.489944595504110847e+00
1.448109289746895678e+00 -3.538317686335133772e+00
1.528559805843945352e+00 -3.557535043574665323e+00
1.609010321940995247e+00 -3.451498657801469250e+00
1.689460838038045143e+00 -3.356200681401402264e+00
1.769911354135094594e+00 -3.292768398202675417e+00
1.850361870232144490e+00 -3.247273200235976542e+00
1.930812386329194386e+00 -3.206288521421545301e+00
2.011262902426244281e+00 -3.165722663645628820e+00
2.091713418523294177e+00 -3.158659281089203130e+00
2.172163934620343628e+00 -3.115291250899128617e+00
2.252614450717393524e+00 -3.068119100364622653e+00
2.333064966814443419e+00 -3.043880017408421956e+00
2.413515482911492871e+00 -3.068720127911204187e+00
2.493965999008542767e+00 -3.106399827008199832e+00
2.574416515105592662e+00 -3.129221799052239295e+00
2.654867031202642558e+00 -3.135671664403184344e+00
2.735317547299692009e+00 -3.130721606254015743e+00
2.815768063396741905e+00 -3.145409522201170205e+00
2.896218579493791356e+00 -3.172873100078169362e+00
2.976669095590841252e+00 -3.209372602206751246e+00
3.057119611687890703e+00 -3.203251437509240240e+00
3.137570127784940599e+00 -3.176687435248098268e+00
3.218020643881990495e+00 -3.159641735089778525e+00
3.298471159979039946e+00 -3.158288749675528972e+00
3.378921676076090286e+00 -3.181106403684722306e+00
3.459372192173139737e+00 -3.235216048808835065e+00
3.539822708270189189e+00 -3.205838745955794433e+00
3.620273224367239528e+00 -3.079931567557753880e+00
3.700723740464288980e+00 -2.981313571788983374e+00
3.781174256561339320e+00 -2.961270259006587136e+00
3.861624772658388771e+00 -2.992919435635577496e+00
3.942075288755438223e+00 -3.034902152963329325e+00
4.022525804852488562e+00 -3.055103430736722192e+00
4.102976320949538014e+00 -3.051400481257472652e+00
4.183426837046588354e+00 -3.060987149914271122e+00
4.263877353143637805e+00 -3.103836463047185745e+00
4.344327869240687257e+00 -3.135016402231121990e+00
4.424778385337737596e+00 -3.131979393987035287e+00
4.505228901434787048e+00 -3.066678255181884527e+00
4.585679417531836499e+00 -2.997121414833451070e+00
4.666129933628886839e+00 -2.978489631098870216e+00
4.746580449725936290e+00 -3.011096784789024206e+00
4.827030965822985742e+00 -3.031208126410497972e+00
4.907481481920036082e+00 -3.048866357419683482e+00
4.987931998017085533e+00 -3.079796223338947314e+00
5.068382514114135873e+00 -3.114047830424234942e+00
5.148833030211185324e+00 -3.119349328306881830e+00
5.229283546308234776e+00 -3.101140952971594089e+00
5.309734062405285115e+00 -3.121305633326490359e+00
5.390184578502334567e+00 -3.162278909058161780e+00
5.470635094599384018e+00 -3.153685594199469922e+00
5.551085610696433470e+00 -3.109426746973179778e+00
5.631536126793483810e+00 -3.084650790505742535e+00
5.711986642890533261e+00 -3.117614736593627089e+00
5.792437158987582713e+00 -3.148916838212191482e+00
5.872887675084633052e+00 -3.158466850118264890e+00
5.953338191181682504e+00 -3.168218943499656159e+00
6.033788707278731955e+00 -3.167756620730961981e+00
6.114239223375781407e+00 -3.173888830686683260e+00
6.194689739472831747e+00 -3.176862827048903437e+00
6.275140255569881198e+00 -3.176928735030520201e+00
6.355590771666931538e+00 -3.188667677299499292e+00
6.436041287763980989e+00 -3.193685580156845116e+00
6.516491803861030441e+00 -3.203431943076492150e+00
6.596942319958079892e+00 -3.203576806958060352e+00
6.677392836055131120e+00 -3.175495773236385322e+00
6.757843352152180572e+00 -3.166599861230487978e+00
6.838293868249230023e+00 -3.204274640921711992e+00
6.918744384346279475e+00 -3.259837652908392780e+00
6.999194900443328926e+00 -3.256616629639074390e+00
7.079645416540378378e+00 -3.210779782133059257e+00
7.160095932637429605e+00 -3.186503257131615641e+00
7.240546448734479057e+00 -3.175554889105598022e+00
7.320996964831528508e+00 -3.185349235834761039e+00
7.401447480928577960e+00 -3.194346755443591146e+00
7.481897997025627411e+00 -3.194406330709973929e+00
7.562348513122678639e+00 -3.186865456487993686e+00
7.642799029219728091e+00 -3.188687481638413868e+00
7.723249545316777542e+00 -3.211498977707867297e+00
7.803700061413826994e+00 -3.218378260732343232e+00
7.884150577510876445e+00 -3.224499989099222752e+00
7.964601093607927673e+00 -3.217867012377416014e+00
8.045051609704977125e+00 -3.201081495512351438e+00
8.125502125802025688e+00 -3.187266142937674296e+00
8.205952641899076028e+00 -3.184070479948531762e+00
8.286403157996124591e+00 -3.188972839676006199e+00
8.366853674093176707e+00 -3.213666235161874773e+00
8.447304190190225270e+00 -3.238035990381203266e+00
8.527754706287275610e+00 -3.248245053989348818e+00
8.608205222384324173e+00 -3.244282753794530016e+00
8.688655738481374513e+00 -3.238946219512654601e+00
8.769106254578423076e+00 -3.239384421308423523e+00
8.849556770675475192e+00 -3.236589373903473010e+00
8.930007286772523756e+00 -3.244888255041048275e+00
9.010457802869574095e+00 -3.227469631000742023e+00
9.090908318966622659e+00 -3.184849218266545989e+00
9.171358835063672998e+00 -3.164733977819905508e+00
9.251809351160723338e+00 -3.186248531921267002e+00
9.332259867257773678e+00 -3.240007206474096346e+00
9.412710383354822241e+00 -3.270396997943035178e+00
9.493160899451872581e+00 -3.260562090614489428e+00
9.573611415548921144e+00 -3.244673160707029602e+00
9.654061931645971484e+00 -3.239108917690499467e+00
9.734512447743021823e+00 -3.252483125949173992e+00
9.814962963840072163e+00 -3.264978229415606226e+00
9.895413479937120727e+00 -3.279496246384162816e+00
9.975863996034171066e+00 -3.280403747321672281e+00
1.005631451213121963e+01 -3.285558604113894887e+00
1.013676502822827175e+01 -3.263649422157233637e+00
1.021721554432532031e+01 -3.249506613915016384e+00
1.029766606042237065e+01 -3.253465462211325487e+00
