0.000000000000000000e+00 -1.549019599857431873e-01
8.045051609704977069e-02 -1.943331795737395229e-01
1.609010321940995414e-01 -5.453287733403990867e-01
2.413515482911492982e-01 -1.439257916713468699e+00
3.218020643881990828e-01 -1.859006058075828749e+00
4.022525804852488118e-01 -2.180677609084814783e+00
4.827030965822985964e-01 -2.595334448195263821e+00
5.631536126793483810e-01 -2.919966414659989962e+00
6.436041287763981655e-01 -3.122366163488749180e+00
7.240546448734478391e-01 -3.264988511264728110e+00
8.045051609704976237e-01 -3.408915364502259848e+00
8.849556770675472972e-01 -3.532433419556759269e+00
9.654061931645971928e-01 -3.543386611884684179e+00
1.045856709261647088e+00 -3.501505507480892732e+00
1.126307225358696762e+00 -3.497096674645915115e+00
1.206757741455746435e+00 -3.519128687663624078e+00
1.287208257552796331e+00 -3.515143450964551608e+00
1.367658773649846005e+00 -3.455800736466738687e+00
1.448109289746895678e+00 -3.333983692897932727e+00
1.528559805843945352e+00 -3.256661723824349153e+00
1.609010321940995247e+00 -3.257509211350988920e+00
1.689460838038045143e+00 -3.266012013660529067e+00
1.769911354135094594e+00 -3.240787267022916751e+00
1.850361870232144490e+00 -3.199282734214655033e+00
1.930812386329194386e+00 -3.151718199994784531e+00
2.011262902426244281e+00 -3.098640347674788575e+00
2.091713418523294177e+00 -3.047613672646352967e+00
2.172163934620343628e+00 -3.014098019777829318e+00
2.252614450717393524e+00 -2.992938186421649327e+00
2.333064966814443419e+00 -2.997754308551347169e+00
2.413515482911492871e+00 -3.016467688422435511e+00
2.493965999008542767e+00 -3.073639684278881123e+00
2.574416515105592662e+00 -3.111727246301928762e+00
2.654867031202642558e+00 -3.148597241315150175e+00
2.735317547299692009e+00 -3.188240289156186957e+00
2.815768063396741905e+00 -3.179483692354610369e+00
2.896218579493791356e+00 -3.124621143658532052e+00
2.976669095590841252e+00 -3.083433130649403164e+00
3.057119611687890703e+00 -3.081790217568404433e+00
3.137570127784940599e+00 -3.148166800619658812e+00
3.218020643881990495e+00 -3.215591081989282340e+00
3.298471159979039946e+00 -3.249398542190308437e+00
3.378921676076090286e+00 -3.184954716667985242e+00
3.459372192173139737e+00 -3.085602445207930256e+00
3.539822708270189189e+00 -3.061460971810460840e+00
3.620273224367239528e+00 -3.076687829224441284e+00
3.700723740464288980e+00 -3.093292409648451535e+00
3.781174256561339320e+00 -3.100991070606419875e+00
3.861624772658388771e+00 -3.095697742704121680e+00
3.942075288755438223e+00 -3.125134178147860542e+00
4.022525804852488562e+00 -3.183551537523813924e+00
4.102976320949538014e+00 -3.209286775205466125e+00
4.183426837046588354e+00 -3.186169641365841798e+00
4.263877353143637805e+00 -3.150708486742283210e+00
4.344327869240687257e+00 -3.114625127208605182e+00
4.424778385337737596e+00 -3.101336107305617151e+00
4.505228901434787048e+00 -3.107209582776070178e+00
4.585679417531836499e+00 -3.128822962744333580e+00
4.666129933628886839e+00 -3.143752552163663339e+00
4.746580449725936290e+00 -3.112640191925268862e+00
4.827030965822985742e+00 -3.077324021695563072e+00
4.907481481920036082e+00 -3.057105460961411669e+00
4.987931998017085533e+00 -3.066512925676506907e+00
5.068382514114135873e+00 -3.097675087791438298e+00
5.148833030211185324e+00 -3.113522145754500592e+00
5.229283546308234776e+00 -3.121643523281703470e+00
5.309734062405285115e+00 -3.094580024677468622e+00
5.390184578502334567e+00 -3.085334604725106011e+00
5.470635094599384018e+00 -3.083376353731462682e+00
5.551085610696433470e+00 -3.092887560912902067e+00
5.631536126793483810e+00 -3.131580444182027190e+00
5.711986642890533261e+00 -3.174096816594265125e+00
5.792437158987582713e+00 -3.190222391857141293e+00
5.872887675084633052e+00 -3.188606578837466010e+00
5.953338191181682504e+00 -3.192069972820188450e+00
6.033788707278731955e+00 -3.186912536467213286e+00
6.114239223375781407e+00 -3.164050674903782667e+00
6.194689739472831747e+00 -3.166059162011662487e+00
6.275140255569881198e+00 -3.173631562913762139e+00
6.355590771666931538e+00 -3.157609537441362857e+00
6.436041287763980989e+00 -3.107718751592081663e+00
6.516491803861030441e+00 -3.072855378688108097e+00
6.596942319958079892e+00 -3.087988662948851992e+00
6.677392836055131120e+00 -3.096238544612435639e+00
6.757843352152180572e+00 -3.138793783714862062e+00
6.838293868249230023e+00 -3.169069778939625159e+00
6.918744384346279475e+00 -3.184434448469915857e+00
6.999194900443328926e+00 -3.194699893428127435e+00
7.079645416540378378e+00 -3.216950015639197247e+00
7.160095932637429605e+00 -3.223657247800912007e+00
7.240546448734479057e+00 -3.195346003927892475e+00
7.320996964831528508e+00 -3.162783288707964768e+00
7.401447480928577960e+00 -3.146694067106269088e+00
7.481897997025627411e+00 -3.187171967678996687e+00
7.562348513122678639e+00 -3.234171048899753043e+00
7.642799029219728091e+00 -3.245094844894863328e+00
7.723249545316777542e+00 -3.219412117406847074e+00
7.803700061413826994e+00 -3.181359378822746553e+00
7.884150577510876445e+00 -3.164589077487767632e+00
7.964601093607927673e+00 -3.184389108085897035e+00
8.045051609704977125e+00 -3.211687187717823022e+00
8.125502125802025688e+00 -3.210558118168720387e+00
8.205952641899076028e+00 -3.194277692730795870e+00
8.286403157996124591e+00 -3.180611070333064117e+00
8.366853674093176707e+00 -3.196319070614058955e+00
8.447304190190225270e+00 -3.248669754817807842e+00
8.527754706287275610e+00 -3.268367474524635163e+00
8.608205222384324173e+00 -3.258293543430254235e+00
8.688655738481374513e+00 -3.254962031491539953e+00
8.769106254578423076e+00 -3.260391244940664901e+00
8.849556770675475192e+00 -3.251700456536151584e+00
8.930007286772523756e+00 -3.233696319145697551e+00
9.010457802869574095e+00 -3.221979268958408138e+00
9.090908318966622659e+00 -3.221369440464651124e+00
9.171358835063672998e+00 -3.226213284814944071e+00
9.251809351160723338e+00 -3.261856916595927913e+00
9.332259867257773678e+00 -3.311402682238340223e+00
9.412710383354822241e+00 -3.325320976117962513e+00
9.493160899451872581e+00 -3.313973565909844599e+00
9.573611415548921144e+00 -3.309869250644082328e+00
9.654061931645971484e+00 -3.287656901730442893e+00
9.734512447743021823e+00 -3.259735945073039876e+00
9.814962963840072163e+00 -3.256735064909783262e+00
9.895413479937120727e+00 -3.268549516512184727e+00
9.975863996034171066e+00 -3.257430297840973932e+00
1.005631451213121963e+01 -3.249049790372515290e+00
1.013676502822827175e+01 -3.245528286414691710e+00
1.021721554432532031e+01 -3.251676636504064799e+00
1.029766606042237065e+01 -3.255078126423134766e+00
