0.000000000000000000e+00 -1.549019599857431873e-01
8.045051609704977069e-02 -2.092184565305615640e-01
1.609010321940995414e-01 -6.051301947069208653e-01
2.413515482911492982e-01 -1.394651122554112277e+00
3.218020643881990828e-01 -1.519162837521664589e+00
4.022525804852488118e-01 -1.851099182891420725e+00
4.827030965822985964e-01 -2.277764658406649989e+00
5.631536126793483810e-01 -2.703015282581971768e+00
6.436041287763981655e-01 -2.940599389026442356e+00
7.240546448734478391e-01 -3.173695020754316864e+00
8.045051609704976237e-01 -3.368925603911181454e+00
8.849556770675472972e-01 -3.428239469113976590e+00
9.654061931645971928e-01 -3.471984788377190601e+00
1.045856709261647088e+00 -3.500840395143039352e+00
1.126307225358696762e+00 -3.531582922042145523e+00
1.206757741455746435e+00 -3.545553153370322175e+00
1.287208257552796331e+00 -3.480483739269824461e+00
1.367658773649846005e+00 -3.404555522332771034e+00
1.448109289746895678e+00 -3.396350941340323892e+00
1.528559805843945352e+00 -3.463680139910320754e+00
1.609010321940995247e+00 -3.445082460960581017e+00
1.689460838038045143e+00 -3.297866846968681820e+00
1.769911354135094594e+00 -3.169980796582606786e+00
1.850361870232144490e+00 -3.136848756369784219e+00
1.930812386329194386e+00 -3.187773519728833715e+00
2.011262902426244281e+00 -3.218166497640750912e+00
2.091713418523294177e+00 -3.180376737920077801e+00
2.172163934620343628e+00 -3.140383727736684616e+00
2.252614450717393524e+00 -3.107233231665174511e+00
2.333064966814443419e+00 -3.121259980199569739e+00
2.413515482911492871e+00 -3.139382402905122049e+00
2.493965999008542767e+00 -3.167433211100695090e+00
2.574416515105592662e+00 -3.157567466517899657e+00
2.654867031202642558e+00 -3.124596520772169317e+00
2.735317547299692009e+00 -3.094211722638751993e+00
2.815768063396741905e+00 -3.088097260415871403e+00
2.896218579493791356e+00 -3.065238657156744040e+00
2.976669095590841252e+00 -3.032954476791783538e+00
3.057119611687890703e+00 -3.023780800510202926e+00
3.137570127784940599e+00 -3.066899014280640490e+00
3.218020643881990495e+00 -3.106083349522044568e+00
3.298471159979039946e+00 -3.117066847235850258e+00
3.378921676076090286e+00 -3.107494564213457711e+00
3.459372192173139737e+00 -3.078070962333095295e+00
3.539822708270189189e+00 -3.064882370872523687e+00
3.620273224367239528e+00 -3.054264152330698145e+00
3.700723740464288980e+00 -3.035197987317730828e+00
3.781174256561339320e+00 -3.018444100031734578e+00
3.861624772658388771e+00 -3.048060695755663740e+00
3.942075288755438223e+00 -3.101314059804989753e+00
4.022525804852488562e+00 -3.130091394056180309e+00
4.102976320949538014e+00 -3.124591235248818322e+00
4.183426837046588354e+00 -3.145108427199529988e+00
4.263877353143637805e+00 -3.168101599110968003e+00
4.344327869240687257e+00 -3.126208621020979184e+00
4.424778385337737596e+00 -3.082749851482833314e+00
4.505228901434787048e+00 -3.095342962084583593e+00
4.585679417531836499e+00 -3.106684037518897767e+00
4.666129933628886839e+00 -3.109666715932581038e+00
4.746580449725936290e+00 -3.123143728817471487e+00
4.827030965822985742e+00 -3.133252225034209193e+00
4.907481481920036082e+00 -3.137496455701889175e+00
4.987931998017085533e+00 -3.148285859972180578e+00
5.068382514114135873e+00 -3.156461942538347554e+00
5.148833030211185324e+00 -3.154783602539733778e+00
5.229283546308234776e+00 -3.159755370428652732e+00
5.309734062405285115e+00 -3.195171451057939205e+00
5.390184578502334567e+00 -3.212959874174248220e+00
5.470635094599384018e+00 -3.181097998878638755e+00
5.551085610696433470e+00 -3.154909070171403762e+00
5.631536126793483810e+00 -3.162654471210480267e+00
5.711986642890533261e+00 -3.175447796507878895e+00
5.792437158987582713e+00 -3.181072964962246452e+00
5.872887675084633052e+00 -3.163331646995300339e+00
5.953338191181682504e+00 -3.134272501702598746e+00
6.033788707278731955e+00 -3.130563190134737273e+00
6.114239223375781407e+00 -3.120116029721824891e+00
6.194689739472831747e+00 -3.121969965233639677e+00
6.275140255569881198e+00 -3.153531495487437830e+00
6.355590771666931538e+00 -3.192020307980076854e+00
6.436041287763980989e+00 -3.179459838718980969e+00
6.516491803861030441e+00 -3.153863615361775175e+00
6.596942319958079892e+00 -3.158746841397879201e+00
6.677392836055131120e+00 -3.163938452542636171e+00
6.757843352152180572e+00 -3.135035201801428695e+00
6.838293868249230023e+00 -3.144293125181682580e+00
6.918744384346279475e+00 -3.152018772177823447e+00
6.999194900443328926e+00 -3.120288041492134568e+00
7.079645416540378378e+00 -3.090916443087610155e+00
7.160095932637429605e+00 -3.116647241092034726e+00
7.240546448734479057e+00 -3.160346477800853648e+00
7.320996964831528508e+00 -3.176531313657656064e+00
7.401447480928577960e+00 -3.153219696513575698e+00
7.481897997025627411e+00 -3.158112254000579711e+00
7.562348513122678639e+00 -3.181198280790110466e+00
7.642799029219728091e+00 -3.203252094419489548e+00
7.723249545316777542e+00 -3.215501680899749193e+00
7.803700061413826994e+00 -3.219678731240755543e+00
7.884150577510876445e+00 -3.240864955303705663e+00
7.964601093607927673e+00 -3.286655323916108262e+00
8.045051609704977125e+00 -3.302542434502001356e+00
8.125502125802025688e+00 -3.289854144785033352e+00
8.205952641899076028e+00 -3.293497352080867024e+00
8.286403157996124591e+00 -3.299263558337350410e+00
8.366853674093176707e+00 -3.284919068295324429e+00
8.447304190190225270e+00 -3.284848204326463961e+00
8.527754706287275610e+00 -3.301113157542212129e+00
8.608205222384324173e+00 -3.289019251213611827e+00
8.688655738481374513e+00 -3.263613490387448302e+00
8.769106254578423076e+00 -3.244228530312657899e+00
8.849556770675475192e+00 -3.247429510814402676e+00
8.930007286772523756e+00 -3.269781207741868645e+00
9.010457802869574095e+00 -3.282516930998568228e+00
9.090908318966622659e+00 -3.300837958548713758e+00
9.171358835063672998e+00 -3.303813694928154465e+00
9.251809351160723338e+00 -3.298712425751102018e+00
9.332259867257773678e+00 -3.300642781119472069e+00
9.412710383354822241e+00 -3.288201551628052055e+00
9.493160899451872581e+00 -3.273154352381271170e+00
9.573611415548921144e+00 -3.256219601832546218e+00
9.654061931645971484e+00 -3.249970782328682972e+00
9.734512447743021823e+00 -3.271287728967662289e+00
9.814962963840072163e+00 -3.296840475885136179e+00
9.895413479937120727e+00 -3.314504765839200839e+00
9.975863996034171066e+00 -3.329970858206044326e+00
1.005631451213121963e+01 -3.317118284171246767e+00
1.013676502822827175e+01 -3.308185922737699958e+00
1.021721554432532031e+01 -3.324962142223306216e+00
1.029766606042237065e+01 -3.347438625993039985e+00
