0.000000000000000000e+00 -1.549019599857431873e-01
8.045051609704977069e-02 -2.106817725853668000e-01
1.609010321940995414e-01 -5.888846014726518696e-01
2.413515482911492982e-01 -1.604352184110093837e+00
3.218020643881990828e-01 -1.924423573712752189e+00
4.022525804852488118e-01 -2.136123759136808964e+00
4.827030965822985964e-01 -2.385028494330700077e+00
5.631536126793483810e-01 -2.663878163634148422e+00
6.436041287763981655e-01 -2.926836061003458944e+00
7.240546448734478391e-01 -3.152108044864489145e+00
8.045051609704976237e-01 -3.374820685167561951e+00
8.849556770675472972e-01 -3.481572872831524279e+00
9.654061931645971928e-01 -3.594772827991797204e+00
1.045856709261647088e+00 -3.625764369026150735e+00
1.126307225358696762e+00 -3.592469327757958908e+00
1.206757741455746435e+00 -3.544670628817900848e+00
1.287208257552796331e+00 -3.495694219798290092e+00
1.367658773649846005e+00 -3.455190261706569732e+00
1.448109289746895678e+00 -3.424716238021000336e+00
1.528559805843945352e+00 -3.372390559609507399e+00
1.609010321940995247e+00 -3.348390586084462939e+00
1.689460838038045143e+00 -3.327673051609584931e+00
1.769911354135094594e+00 -3.287028207530682700e+00
1.850361870232144490e+00 -3.172163926589282035e+00
1.930812386329194386e+00 -3.091723985890683757e+00
2.011262902426244281e+00 -3.112736533937642047e+00
2.091713418523294177e+00 -3.118434894840227400e+00
2.172163934620343628e+00 -3.058948116295455932e+00
2.252614450717393524e+00 -2.968233920538992265e+00
2.333064966814443419e+00 -2.927336132206246333e+00
2.413515482911492871e+00 -2.977183969750945458e+00
2.493965999008542767e+00 -3.045652932804337798e+00
2.574416515105592662e+00 -3.103915883302853285e+00
2.654867031202642558e+00 -3.155935480371931945e+00
2.735317547299692009e+00 -3.184433358136253833e+00
2.815768063396741905e+00 -3.188021821020962321e+00
2.896218579493791356e+00 -3.221495840294287927e+00
2.976669095590841252e+00 -3.221811058220553914e+00
3.057119611687890703e+00 -3.195214636875129965e+00
3.137570127784940599e+00 -3.191416629305414698e+00
3.218020643881990495e+00 -3.188517252905946897e+00
3.298471159979039946e+00 -3.141029236777574507e+00
3.378921676076090286e+00 -3.090991520157528871e+00
3.459372192173139737e+00 -3.078606766050847821e+00
3.539822708270189189e+00 -3.086431690764451563e+00
3.620273224367239528e+00 -3.102351412056171487e+00
3.700723740464288980e+00 -3.111965566388361193e+00
3.781174256561339320e+00 -3.124498200386575775e+00
3.861624772658388771e+00 -3.116233060315714898e+00
3.942075288755438223e+00 -3.099135565739566278e+00
4.022525804852488562e+00 -3.089720045375591972e+00
4.102976320949538014e+00 -3.084215709695244279e+00
4.183426837046588354e+00 -3.086009560337610313e+00
4.263877353143637805e+00 -3.106898210382916581e+00
4.344327869240687257e+00 -3.120129673623020850e+00
4.424778385337737596e+00 -3.101555404156173257e+00
4.505228901434787048e+00 -3.089106210856095380e+00
4.585679417531836499e+00 -3.106179375850590230e+00
4.666129933628886839e+00 -3.163729625576311655e+00
4.746580449725936290e+00 -3.199298986794604005e+00
4.827030965822985742e+00 -3.193656147477509588e+00
4.907481481920036082e+00 -3.163458841130391885e+00
4.987931998017085533e+00 -3.158546742371633798e+00
5.068382514114135873e+00 -3.207708878466096092e+00
5.148833030211185324e+00 -3.209411427129309491e+00
5.229283546308234776e+00 -3.184223648474890034e+00
5.309734062405285115e+00 -3.137835787179505953e+00
5.390184578502334567e+00 -3.119796519496332188e+00
5.470635094599384018e+00 -3.140927533998300270e+00
5.551085610696433470e+00 -3.153596354046007910e+00
5.631536126793483810e+00 -3.147368036330632446e+00
5.711986642890533261e+00 -3.134396701402700991e+00
5.792437158987582713e+00 -3.128078359711672363e+00
5.872887675084633052e+00 -3.109313673263590427e+00
5.953338191181682504e+00 -3.126902634461294017e+00
6.033788707278731955e+00 -3.161478812012036510e+00
6.114239223375781407e+00 -3.185708387986760926e+00
6.194689739472831747e+00 -3.201009266977075551e+00
6.275140255569881198e+00 -3.209552017519758493e+00
6.355590771666931538e+00 -3.187572495748747681e+00
6.436041287763980989e+00 -3.174084037995463792e+00
6.516491803861030441e+00 -3.153058680583013640e+00
6.596942319958079892e+00 -3.134009193105487423e+00
6.677392836055131120e+00 -3.167539226951379128e+00
6.757843352152180572e+00 -3.207492707953947253e+00
6.838293868249230023e+00 -3.213341349508867850e+00
6.918744384346279475e+00 -3.204633884463094606e+00
6.999194900443328926e+00 -3.192139694391922244e+00
7.079645416540378378e+00 -3.208146888333684554e+00
7.160095932637429605e+00 -3.210204391411774605e+00
7.240546448734479057e+00 -3.203938364608529099e+00
7.320996964831528508e+00 -3.203153678685785266e+00
7.401447480928577960e+00 -3.216305931943069130e+00
7.481897997025627411e+00 -3.249295533159096472e+00
7.562348513122678639e+00 -3.261608112867323772e+00
7.642799029219728091e+00 -3.240636316130295125e+00
7.723249545316777542e+00 -3.214610990724633854e+00
7.803700061413826994e+00 -3.179480172885010614e+00
7.884150577510876445e+00 -3.159793705694720956e+00
7.964601093607927673e+00 -3.161876130855245215e+00
8.045051609704977125e+00 -3.192117148492581880e+00
8.125502125802025688e+00 -3.218368738401409246e+00
8.205952641899076028e+00 -3.258289900017648399e+00
8.286403157996124591e+00 -3.287146037181003511e+00
8.366853674093176707e+00 -3.281959853056866550e+00
8.447304190190225270e+00 -3.271449453596855239e+00
8.527754706287275610e+00 -3.253352771633846618e+00
8.608205222384324173e+00 -3.236789994646223079e+00
8.688655738481374513e+00 -3.217061295017198397e+00
8.769106254578423076e+00 -3.212775036189043032e+00
8.849556770675475192e+00 -3.224886750624609277e+00
8.930007286772523756e+00 -3.237260988584644839e+00
9.010457802869574095e+00 -3.268640571785765392e+00
9.090908318966622659e+00 -3.292929979151907549e+00
9.171358835063672998e+00 -3.321146457738149760e+00
9.251809351160723338e+00 -3.322801109481192228e+00
9.332259867257773678e+00 -3.301219060291162410e+00
9.412710383354822241e+00 -3.285157412886664297e+00
9.493160899451872581e+00 -3.283185352482575592e+00
9.573611415548921144e+00 -3.278024255887507898e+00
9.654061931645971484e+00 -3.280589609903367787e+00
9.734512447743021823e+00 -3.290370797112200041e+00
9.814962963840072163e+00 -3.299732939984556523e+00
9.895413479937120727e+00 -3.310884599769949865e+00
9.975863996034171066e+00 -3.316428922891479836e+00
1.005631451213121963e+01 -3.325315112257552830e+00
1.013676502822827175e+01 -3.334833064071281328e+00
1.021721554432532031e+01 -3.346481526080361313e+00
1.029766606042237065e+01 -3.341393773261956746e+00
