0.000000000000000000e+00 -1.549019599857431873e-01
8.045051609704977069e-02 -1.879702256536207594e-01
1.609010321940995414e-01 -4.094822545027936300e-01
2.413515482911492982e-01 -8.455860233468799336e-01
3.218020643881990828e-01 -1.160690706399063687e+00
4.022525804852488118e-01 -1.599733362072410570e+00
4.827030965822985964e-01 -2.027524179952758576e+00
5.631536126793483810e-01 -2.373010312474725492e+00
6.436041287763981655e-01 -2.671053060764157383e+00
7.240546448734478391e-01 -2.855051220637162768e+00
8.045051609704976237e-01 -3.051943640770215183e+00
8.849556770675472972e-01 -3.157952618671795442e+00
9.654061931645971928e-01 -3.244983242764310827e+00
1.045856709261647088e+00 -3.355897877906242055e+00
1.126307225358696762e+00 -3.401126557015560437e+00
1.206757741455746435e+00 -3.388428327601309853e+00
1.287208257552796331e+00 -3.381436029142582012e+00
1.367658773649846005e+00 -3.371010778004321029e+00
1.448109289746895678e+00 -3.341132780397108704e+00
1.528559805843945352e+00 -3.267820354481191902e+00
1.609010321940995247e+00 -3.140267284151921245e+00
1.689460838038045143e+00 -3.090312261147166062e+00
1.769911354135094594e+00 -3.083325703093453107e+00
1.850361870232144490e+00 -3.061183153597430096e+00
1.930812386329194386e+00 -2.994547134235110875e+00
2.011262902426244281e+00 -2.930425815192099659e+00
2.091713418523294177e+00 -2.908988929607470464e+00
2.172163934620343628e+00 -2.915916344126860960e+00
2.252614450717393524e+00 -2.920662341679318708e+00
2.333064966814443419e+00 -2.903815558806129182e+00
2.413515482911492871e+00 -2.901452329251960283e+00
2.493965999008542767e+00 -2.852190285935545244e+00
2.574416515105592662e+00 -2.817483306357754458e+00
2.654867031202642558e+00 -2.852590454695985933e+00
2.735317547299692009e+00 -2.920721478011387262e+00
2.815768063396741905e+00 -2.995611241672227365e+00
2.896218579493791356e+00 -3.053595065108311246e+00
2.976669095590841252e+00 -3.058724406941721430e+00
3.057119611687890703e+00 -3.008562947615944783e+00
3.137570127784940599e+00 -2.932239569988187800e+00
3.218020643881990495e+00 -2.887133556432470716e+00
3.298471159979039946e+00 -2.871294405363319147e+00
3.378921676076090286e+00 -2.900231728584771851e+00
3.459372192173139737e+00 -2.951868153874418255e+00
3.539822708270189189e+00 -2.981212465661100097e+00
3.620273224367239528e+00 -2.987329725026784732e+00
3.700723740464288980e+00 -2.986886556529757986e+00
3.781174256561339320e+00 -2.951703656822924682e+00
3.861624772658388771e+00 -2.906313607451966430e+00
3.942075288755438223e+00 -2.873534772694043671e+00
4.022525804852488562e+00 -2.874318248815966648e+00
4.102976320949538014e+00 -2.880818823837930420e+00
4.183426837046588354e+00 -2.889313203100720706e+00
4.263877353143637805e+00 -2.905482606980689830e+00
4.344327869240687257e+00 -2.925567246008615729e+00
4.424778385337737596e+00 -2.930271642184723024e+00
4.505228901434787048e+00 -2.943183260203825480e+00
4.585679417531836499e+00 -2.984988935317129943e+00
4.666129933628886839e+00 -3.001102764616086382e+00
4.746580449725936290e+00 -3.010658052805791574e+00
4.827030965822985742e+00 -3.006750686172222853e+00
4.907481481920036082e+00 -2.980747680142886491e+00
4.987931998017085533e+00 -2.936649214901541516e+00
5.068382514114135873e+00 -2.929011485107819279e+00
5.148833030211185324e+00 -2.944224759786907342e+00
5.229283546308234776e+00 -2.950096779446614637e+00
5.309734062405285115e+00 -2.946483435128041783e+00
5.390184578502334567e+00 -2.943171030738507277e+00
5.470635094599384018e+00 -2.926709429221338254e+00
5.551085610696433470e+00 -2.909538819180023328e+00
5.631536126793483810e+00 -2.890505044551052727e+00
5.711986642890533261e+00 -2.896857384089729148e+00
5.792437158987582713e+00 -2.946405289948450523e+00
5.872887675084633052e+00 -3.020805521099081847e+00
5.953338191181682504e+00 -3.041242093824481518e+00
6.033788707278731955e+00 -3.030493241077321986e+00
6.114239223375781407e+00 -3.021008063383649578e+00
6.194689739472831747e+00 -3.029591945850568901e+00
6.275140255569881198e+00 -3.014611529760532704e+00
6.355590771666931538e+00 -3.017569252886782127e+00
6.436041287763980989e+00 -3.050416342406887527e+00
6.516491803861030441e+00 -3.066106522949115565e+00
6.596942319958079892e+00 -3.063794214513701153e+00
6.677392836055131120e+00 -3.066283378982056274e+00
6.757843352152180572e+00 -3.068540546327017449e+00
6.838293868249230023e+00 -3.043175845035172244e+00
6.918744384346279475e+00 -3.015673745660140348e+00
6.999194900443328926e+00 -3.017993962588208845e+00
7.079645416540378378e+00 -3.021935176134345369e+00
7.160095932637429605e+00 -3.039527615980139874e+00
7.240546448734479057e+00 -3.033789874938113140e+00
7.320996964831528508e+00 -3.028495373156378179e+00
7.401447480928577960e+00 -3.021865647134004629e+00
7.481897997025627411e+00 -3.023452051524900597e+00
7.562348513122678639e+00 -3.029295489692884313e+00
7.642799029219728091e+00 -3.054767592066146342e+00
7.723249545316777542e+00 -3.102709658383379310e+00
7.803700061413826994e+00 -3.126641196320490312e+00
7.884150577510876445e+00 -3.110442725758863158e+00
7.964601093607927673e+00 -3.088554765600403318e+00
8.045051609704977125e+00 -3.092159842628102062e+00
8.125502125802025688e+00 -3.097888066802172435e+00
8.205952641899076028e+00 -3.086439087543815241e+00
8.286403157996124591e+00 -3.075964928364657514e+00
8.366853674093176707e+00 -3.080243093269707799e+00
8.447304190190225270e+00 -3.071527634595516698e+00
8.527754706287275610e+00 -3.079067741972862482e+00
8.608205222384324173e+00 -3.070923325318747565e+00
8.688655738481374513e+00 -3.041811058219474173e+00
8.769106254578423076e+00 -3.019929585011338347e+00
8.849556770675475192e+00 -3.019345868186303683e+00
8.930007286772523756e+00 -3.019311986771737288e+00
9.010457802869574095e+00 -3.056974158381675633e+00
9.090908318966622659e+00 -3.070373955021962420e+00
9.171358835063672998e+00 -3.066420524658389102e+00
9.251809351160723338e+00 -3.074511713909178212e+00
9.332259867257773678e+00 -3.086738156978533709e+00
9.412710383354822241e+00 -3.089764298374642504e+00
9.493160899451872581e+00 -3.078934212142169446e+00
9.573611415548921144e+00 -3.080254248917899229e+00
9.654061931645971484e+00 -3.112984994337733458e+00
9.734512447743021823e+00 -3.161509609324514081e+00
9.814962963840072163e+00 -3.172536621905676313e+00
9.895413479937120727e+00 -3.157184080954129612e+00
9.975863996034171066e+00 -3.146358187393498707e+00
1.005631451213121963e+01 -3.151840375148152074e+00
1.013676502822827175e+01 -3.150536611965133016e+00
1.021721554432532031e+01 -3.145099342277284826e+00
1.029766606042237065e+01 -3.122212310029460536e+00
