0.000000000000000000e+00 -1.549019599857431873e-01
8.045051609704977069e-02 -3.890180095129069371e-01
1.609010321940995414e-01 -1.122645157842135921e+00
2.413515482911492982e-01 -2.403739389575640040e+00
3.218020643881990828e-01 -2.871790337175668562e+00
4.022525804852488118e-01 -3.442273121360931665e+00
4.827030965822985964e-01 -4.192237473568904527e+00
5.631536126793483810e-01 -5.020817742674299922e+00
6.436041287763981655e-01 -5.622576525126538272e+00
7.240546448734478391e-01 -5.895532194775955581e+00
8.045051609704976237e-01 -6.124840899893816193e+00
8.849556770675472972e-01 -6.404237482678942328e+00
9.654061931645971928e-01 -6.622616789167546258e+00
1.045856709261647088e+00 -6.761313582840823955e+00
1.126307225358696762e+00 -6.823927085381346735e+00
1.206757741455746435e+00 -6.829186414592502530e+00
1.287208257552796331e+00 -6.713915230450053784e+00
1.367658773649846005e+00 -6.577941373813779968e+00
1.448109289746895678e+00 -6.587759818719103322e+00
1.528559805843945352e+00 -6.600353803161416621e+00
1.609010321940995247e+00 -6.466345735121272753e+00
1.689460838038045143e+00 -6.307867856876218760e+00
1.769911354135094594e+00 -6.189988323076355492e+00
1.850361870232144490e+00 -6.101112700417648860e+00
1.930812386329194386e+00 -6.006101892929165409e+00
2.011262902426244281e+00 -5.975853380988051633e+00
2.091713418523294177e+00 -5.908320212582201414e+00
2.172163934620343628e+00 -5.873283444363877059e+00
2.252614450717393524e+00 -5.812573321389801428e+00
2.333064966814443419e+00 -5.765613735278002139e+00
2.413515482911492871e+00 -5.695243455007435784e+00
2.493965999008542767e+00 -5.657772906366074217e+00
2.574416515105592662e+00 -5.692048115969950750e+00
2.654867031202642558e+00 -5.780062901647584184e+00
2.735317547299692009e+00 -5.908304473713926974e+00
2.815768063396741905e+00 -6.020028413866552519e+00
2.896218579493791356e+00 -5.965244220581918277e+00
2.976669095590841252e+00 -5.873446400688438374e+00
3.057119611687890703e+00 -5.875181971863124630e+00
3.137570127784940599e+00 -5.931785341981314019e+00
3.218020643881990495e+00 -5.878394720362623893e+00
3.298471159979039946e+00 -5.800457737960581284e+00
3.378921676076090286e+00 -5.811539783829563710e+00
3.459372192173139737e+00 -5.896759752416016909e+00
3.539822708270189189e+00 -5.970618317502383476e+00
3.620273224367239528e+00 -5.949781460417793433e+00
3.700723740464288980e+00 -5.884259278060926412e+00
3.781174256561339320e+00 -5.824929712442123986e+00
3.861624772658388771e+00 -5.729988457938405944e+00
3.942075288755438223e+00 -5.623175060887921184e+00
4.022525804852488562e+00 -5.617716933669714585e+00
4.102976320949538014e+00 -5.679990938546371382e+00
4.183426837046588354e+00 -5.788309301019515019e+00
4.263877353143637805e+00 -5.868855340104114582e+00
4.344327869240687257e+00 -5.899698983638818284e+00
4.424778385337737596e+00 -5.927942836167981788e+00
4.505228901434787048e+00 -5.929947927462594137e+00
4.585679417531836499e+00 -5.912101045689387213e+00
4.666129933628886839e+00 -5.941196092918091587e+00
4.746580449725936290e+00 -5.944902048904723735e+00
4.827030965822985742e+00 -5.920321449582430340e+00
4.907481481920036082e+00 -5.920192412079217092e+00
4.987931998017085533e+00 -5.942477733265734585e+00
5.068382514114135873e+00 -5.927420006781586537e+00
5.148833030211185324e+00 -5.883377192469567696e+00
5.229283546308234776e+00 -5.920217563349746470e+00
5.309734062405285115e+00 -5.959776309798368921e+00
5.390184578502334567e+00 -5.968947018709620522e+00
5.470635094599384018e+00 -5.933672591437420429e+00
5.551085610696433470e+00 -5.892847277643186388e+00
5.631536126793483810e+00 -5.859910433482404812e+00
5.711986642890533261e+00 -5.939752325075017936e+00
5.792437158987582713e+00 -6.059797311561697875e+00
5.872887675084633052e+00 -6.138107051469605224e+00
5.953338191181682504e+00 -6.099914432788276386e+00
6.033788707278731955e+00 -5.977338595101478802e+00
6.114239223375781407e+00 -5.934851250775119880e+00
6.194689739472831747e+00 -5.970806149525516027e+00
6.275140255569881198e+00 -6.021120794728631154e+00
6.355590771666931538e+00 -6.036089704610148488e+00
6.436041287763980989e+00 -6.029255476896739907e+00
6.516491803861030441e+00 -5.995611815222126495e+00
6.596942319958079892e+00 -5.946903466638919333e+00
6.677392836055131120e+00 -5.970684419703692569e+00
6.757843352152180572e+00 -6.010187380419658609e+00
6.838293868249230023e+00 -6.022518613093286177e+00
6.918744384346279475e+00 -6.050458736476100441e+00
6.999194900443328926e+00 -6.096077194633808816e+00
7.079645416540378378e+00 -6.104175008588188511e+00
7.160095932637429605e+00 -6.099664274186166857e+00
7.240546448734479057e+00 -6.074345490138409964e+00
7.320996964831528508e+00 -6.079235571019567352e+00
7.401447480928577960e+00 -6.068398825018622489e+00
7.481897997025627411e+00 -6.029308285887639229e+00
7.562348513122678639e+00 -6.028254694891608700e+00
7.642799029219728091e+00 -6.021062544048408682e+00
7.723249545316777542e+00 -6.008939435911151428e+00
7.803700061413826994e+00 -6.015844899705466986e+00
7.884150577510876445e+00 -6.022209895338355601e+00
7.964601093607927673e+00 -6.040428822698308053e+00
8.045051609704977125e+00 -6.080641073940804553e+00
8.125502125802025688e+00 -6.137263942929473970e+00
8.205952641899076028e+00 -6.164974362308036859e+00
8.286403157996124591e+00 -6.177455069691659695e+00
8.366853674093176707e+00 -6.174865564853021738e+00
8.447304190190225270e+00 -6.194065091995057060e+00
8.527754706287275610e+00 -6.183780199522896481e+00
8.608205222384324173e+00 -6.163386658594107281e+00
8.688655738481374513e+00 -6.141439606222576231e+00
8.769106254578423076e+00 -6.135032655468185325e+00
8.849556770675475192e+00 -6.183013954757879738e+00
8.930007286772523756e+00 -6.207467304271932385e+00
9.010457802869574095e+00 -6.162169469366549635e+00
9.090908318966622659e+00 -6.058773769123616759e+00
9.171358835063672998e+00 -6.052701311537257212e+00
9.251809351160723338e+00 -6.142032896845006640e+00
9.332259867257773678e+00 -6.180890819502495859e+00
9.412710383354822241e+00 -6.215144035639002418e+00
9.493160899451872581e+00 -6.234117115278682064e+00
9.573611415548921144e+00 -6.266844821894529183e+00
9.654061931645971484e+00 -6.298138045946399366e+00
9.734512447743021823e+00 -6.283496676050600804e+00
9.814962963840072163e+00 -6.222388894944979931e+00
9.895413479937120727e+00 -6.204014068537326843e+00
9.975863996034171066e+00 -6.231700757082296427e+00
1.005631451213121963e+01 -6.274861064461338955e+00
1.013676502822827175e+01 -6.265325162465216202e+00
1.021721554432532031e+01 -6.265104218686914805e+00
1.029766606042237065e+01 -6.299956540622888568e+00
