0.000000000000000000e+00 -1.549019599857431873e-01
8.045051609704977069e-02 -1.680712793829754748e-01
1.609010321940995414e-01 -3.521921617805189864e-01
2.413515482911492982e-01 -6.734855156772845408e-01
3.218020643881990828e-01 -9.755495091631198878e-01
4.022525804852488118e-01 -1.435231708900341463e+00
4.827030965822985964e-01 -2.004396995976915452e+00
5.631536126793483810e-01 -2.401255720745921085e+00
6.436041287763981655e-01 -2.710448908656428291e+00
7.240546448734478391e-01 -2.900207443313043587e+00
8.045051609704976237e-01 -2.983525672473264834e+00
8.849556770675472972e-01 -2.990356786681097390e+00
9.654061931645971928e-01 -3.000559397778167270e+00
1.045856709261647088e+00 -3.092427570418031291e+00
1.126307225358696762e+00 -3.190936238970851324e+00
1.206757741455746435e+00 -3.252087395570077089e+00
1.287208257552796331e+00 -3.305006393112767338e+00
1.367658773649846005e+00 -3.338202853270974213e+00
1.448109289746895678e+00 -3.333089737953771614e+00
1.528559805843945352e+00 -3.349427924088808073e+00
1.609010321940995247e+00 -3.320601733028773594e+00
1.689460838038045143e+00 -3.227145826728501365e+00
1.769911354135094594e+00 -3.096444569515917067e+00
1.850361870232144490e+00 -2.994442787058136712e+00
1.930812386329194386e+00 -2.938820149014627070e+00
2.011262902426244281e+00 -2.880443059501425207e+00
2.091713418523294177e+00 -2.829829390300690140e+00
2.172163934620343628e+00 -2.824383477217940808e+00
2.252614450717393524e+00 -2.867092258246463743e+00
2.333064966814443419e+00 -2.898306979820875373e+00
2.413515482911492871e+00 -2.894092501679228935e+00
2.493965999008542767e+00 -2.917517063819934364e+00
2.574416515105592662e+00 -2.944554682681395974e+00
2.654867031202642558e+00 -2.933758762996557135e+00
2.735317547299692009e+00 -2.951381296740735571e+00
2.815768063396741905e+00 -2.974240728725536798e+00
2.896218579493791356e+00 -2.961331838158447027e+00
2.976669095590841252e+00 -2.922914518433235909e+00
3.057119611687890703e+00 -2.899195353744937531e+00
3.137570127784940599e+00 -2.916156976328615702e+00
3.218020643881990495e+00 -2.937591029794324182e+00
3.298471159979039946e+00 -2.985858328744592782e+00
3.378921676076090286e+00 -2.967006571578985508e+00
3.459372192173139737e+00 -2.966458637404574272e+00
3.539822708270189189e+00 -2.975577056496049977e+00
3.620273224367239528e+00 -2.972291184055653623e+00
3.700723740464288980e+00 -2.956917563361301848e+00
3.781174256561339320e+00 -2.945389867049384769e+00
3.861624772658388771e+00 -2.938446803600980761e+00
3.942075288755438223e+00 -2.948211144766913261e+00
4.022525804852488562e+00 -2.959801590974998398e+00
4.102976320949538014e+00 -2.956334559255060057e+00
4.183426837046588354e+00 -2.928023435362884008e+00
4.263877353143637805e+00 -2.920216807453310803e+00
4.344327869240687257e+00 -2.947591445742471006e+00
4.424778385337737596e+00 -2.970276420120040228e+00
4.505228901434787048e+00 -2.984598781522914468e+00
4.585679417531836499e+00 -2.979414812851797656e+00
4.666129933628886839e+00 -2.975997090692326985e+00
4.746580449725936290e+00 -2.992045620552336249e+00
4.827030965822985742e+00 -2.989179018478202110e+00
4.907481481920036082e+00 -2.974960941477450049e+00
4.987931998017085533e+00 -2.949726908969769301e+00
5.068382514114135873e+00 -2.924578291266310970e+00
5.148833030211185324e+00 -2.922759133650036034e+00
5.229283546308234776e+00 -2.936059963814058094e+00
5.309734062405285115e+00 -2.958692847023377315e+00
5.390184578502334567e+00 -2.969535598320089953e+00
5.470635094599384018e+00 -2.977934990887842304e+00
5.551085610696433470e+00 -2.958969389543580686e+00
5.631536126793483810e+00 -2.952392863045692817e+00
5.711986642890533261e+00 -2.967883674786060411e+00
5.792437158987582713e+00 -2.981433641167714921e+00
5.872887675084633052e+00 -2.995222549165740489e+00
5.953338191181682504e+00 -3.006979551391610883e+00
6.033788707278731955e+00 -3.018016019811702755e+00
6.114239223375781407e+00 -3.024335633304346072e+00
6.194689739472831747e+00 -3.051604661729252932e+00
6.275140255569881198e+00 -3.064583698085165953e+00
6.355590771666931538e+00 -3.041418763261481750e+00
6.436041287763980989e+00 -3.006578526850791189e+00
6.516491803861030441e+00 -2.996539450594932763e+00
6.596942319958079892e+00 -3.019502221649337237e+00
6.677392836055131120e+00 -3.020520469597190338e+00
6.757843352152180572e+00 -3.016061401367112982e+00
6.838293868249230023e+00 -3.002658339286764733e+00
6.918744384346279475e+00 -2.982205229864480778e+00
6.999194900443328926e+00 -2.979155741087887055e+00
7.079645416540378378e+00 -2.993910479245343037e+00
7.160095932637429605e+00 -3.005210066221096987e+00
7.240546448734479057e+00 -3.008283886887638481e+00
7.320996964831528508e+00 -3.019651762561456732e+00
7.401447480928577960e+00 -3.026571128368257035e+00
7.481897997025627411e+00 -3.022546251577213017e+00
7.562348513122678639e+00 -3.033741245190181957e+00
7.642799029219728091e+00 -3.050589738605135715e+00
7.723249545316777542e+00 -3.070659593193633352e+00
7.803700061413826994e+00 -3.098155593327192037e+00
7.884150577510876445e+00 -3.127646720830027149e+00
7.964601093607927673e+00 -3.147869284250733202e+00
8.045051609704977125e+00 -3.150516266152158629e+00
8.125502125802025688e+00 -3.133133465397958783e+00
8.205952641899076028e+00 -3.103179842798847954e+00
8.286403157996124591e+00 -3.050734464155646197e+00
8.366853674093176707e+00 -3.023771303628637330e+00
8.447304190190225270e+00 -3.031423993022400953e+00
8.527754706287275610e+00 -3.051946120130343054e+00
8.608205222384324173e+00 -3.054752641093499310e+00
8.688655738481374513e+00 -3.057470840663336631e+00
8.769106254578423076e+00 -3.097906731423485827e+00
8.849556770675475192e+00 -3.113950199078612258e+00
8.930007286772523756e+00 -3.136581407270014221e+00
9.010457802869574095e+00 -3.142019481029342920e+00
9.090908318966622659e+00 -3.151081213637429101e+00
9.171358835063672998e+00 -3.143708828677080902e+00
9.251809351160723338e+00 -3.136947975964413882e+00
9.332259867257773678e+00 -3.123016990334124277e+00
9.412710383354822241e+00 -3.118193400974993423e+00
9.493160899451872581e+00 -3.109970144865266128e+00
9.573611415548921144e+00 -3.087183800503013220e+00
9.654061931645971484e+00 -3.074968236059756332e+00
9.734512447743021823e+00 -3.085851032667118687e+00
9.814962963840072163e+00 -3.095862995651022409e+00
9.895413479937120727e+00 -3.094515121549489489e+00
9.975863996034171066e+00 -3.092957022927072419e+00
1.005631451213121963e+01 -3.104144144711864506e+00
1.013676502822827175e+01 -3.110964306935859014e+00
1.021721554432532031e+01 -3.120821327758215524e+00
1.029766606042237065e+01 -3.117941799044362750e+00
