0.000000000000000000e+00 -1.549019599857431873e-01
8.045051609704977069e-02 -1.821748460653765667e-01
1.609010321940995414e-01 -4.476896263712468738e-01
2.413515482911492982e-01 -1.053737449888573430e+00
3.218020643881990828e-01 -1.501213661746655159e+00
4.022525804852488118e-01 -1.938462303289340660e+00
4.827030965822985964e-01 -2.270615711825965111e+00
5.631536126793483810e-01 -2.590539049442455610e+00
6.436041287763981655e-01 -2.797181058897874273e+00
7.240546448734478391e-01 -2.910783078221759190e+00
8.045051609704976237e-01 -2.993068546021724341e+00
8.849556770675472972e-01 -3.102686390984751075e+00
9.654061931645971928e-01 -3.220157548877012665e+00
1.045856709261647088e+00 -3.266585427637662242e+00
1.126307225358696762e+00 -3.266689797560507813e+00
1.206757741455746435e+00 -3.282933692937119563e+00
1.287208257552796331e+00 -3.277622182634786441e+00
1.367658773649846005e+00 -3.249109915727335540e+00
1.448109289746895678e+00 -3.193602057662119353e+00
1.528559805843945352e+00 -3.188210921444308177e+00
1.609010321940995247e+00 -3.239791744426579356e+00
1.689460838038045143e+00 -3.266975470318418839e+00
1.769911354135094594e+00 -3.303005284219171500e+00
1.850361870232144490e+00 -3.291622559676092408e+00
1.930812386329194386e+00 -3.214993532434077483e+00
2.011262902426244281e+00 -3.094219599719255420e+00
2.091713418523294177e+00 -2.986011840770700143e+00
2.172163934620343628e+00 -2.918336304457625374e+00
2.252614450717393524e+00 -2.903154526718005446e+00
2.333064966814443419e+00 -2.902152991637286572e+00
2.413515482911492871e+00 -2.888557827755624974e+00
2.493965999008542767e+00 -2.871517299903728837e+00
2.574416515105592662e+00 -2.879693414340098734e+00
2.654867031202642558e+00 -2.909450923008138012e+00
2.735317547299692009e+00 -2.943438329513381913e+00
2.815768063396741905e+00 -2.984739966600269856e+00
2.896218579493791356e+00 -3.023551155006086066e+00
2.976669095590841252e+00 -3.031343075621514505e+00
3.057119611687890703e+00 -3.028625500212688504e+00
3.137570127784940599e+00 -3.024927213008277604e+00
3.218020643881990495e+00 -3.012008145555153060e+00
3.298471159979039946e+00 -2.995188952050133135e+00
3.378921676076090286e+00 -2.949904654877701926e+00
3.459372192173139737e+00 -2.903787917094783566e+00
3.539822708270189189e+00 -2.879642301186667641e+00
3.620273224367239528e+00 -2.899754969980468111e+00
3.700723740464288980e+00 -2.943902731038126941e+00
3.781174256561339320e+00 -3.006789809676693626e+00
3.861624772658388771e+00 -3.002980366339372154e+00
3.942075288755438223e+00 -2.958761046298545860e+00
4.022525804852488562e+00 -2.933485588522528165e+00
4.102976320949538014e+00 -2.930726894013534256e+00
4.183426837046588354e+00 -2.921267208406765903e+00
4.263877353143637805e+00 -2.894927027345155945e+00
4.344327869240687257e+00 -2.876514795459115703e+00
4.424778385337737596e+00 -2.902981798695401849e+00
4.505228901434787048e+00 -2.969260042416676182e+00
4.585679417531836499e+00 -2.999625704442919094e+00
4.666129933628886839e+00 -2.978181919703956737e+00
4.746580449725936290e+00 -2.935004680733377391e+00
4.827030965822985742e+00 -2.933306666071579638e+00
4.907481481920036082e+00 -2.938765966318936051e+00
4.987931998017085533e+00 -2.935965677971440702e+00
5.068382514114135873e+00 -2.933999012398084805e+00
5.148833030211185324e+00 -2.943413055629864772e+00
5.229283546308234776e+00 -2.971574572335825781e+00
5.309734062405285115e+00 -2.985736037748210947e+00
5.390184578502334567e+00 -2.949564919717217570e+00
5.470635094599384018e+00 -2.912137859885759905e+00
5.551085610696433470e+00 -2.912159965999697953e+00
5.631536126793483810e+00 -2.949471829923230093e+00
5.711986642890533261e+00 -2.996351672814509204e+00
5.792437158987582713e+00 -3.005357386118371110e+00
5.872887675084633052e+00 -3.016700552590526829e+00
5.953338191181682504e+00 -3.017106728572404695e+00
6.033788707278731955e+00 -3.008508727581170827e+00
6.114239223375781407e+00 -2.996111450699755263e+00
6.194689739472831747e+00 -2.986110218478556178e+00
6.275140255569881198e+00 -2.972682320446652593e+00
6.355590771666931538e+00 -2.952134561651498679e+00
6.436041287763980989e+00 -2.932282585212143466e+00
6.516491803861030441e+00 -2.953544696348034737e+00
6.596942319958079892e+00 -2.995840425494569637e+00
6.677392836055131120e+00 -3.001444552662481779e+00
6.757843352152180572e+00 -2.977856953289939490e+00
6.838293868249230023e+00 -2.978614515441174948e+00
6.918744384346279475e+00 -2.999491926901826755e+00
6.999194900443328926e+00 -2.994261476540373668e+00
7.079645416540378378e+00 -2.974191659524766607e+00
7.160095932637429605e+00 -2.973164256039567022e+00
7.240546448734479057e+00 -2.984129053388826502e+00
7.320996964831528508e+00 -2.996857257579668588e+00
7.401447480928577960e+00 -2.990390243311407570e+00
7.481897997025627411e+00 -2.992122237807237184e+00
7.562348513122678639e+00 -3.010601956359577613e+00
7.642799029219728091e+00 -3.041675473857519130e+00
7.723249545316777542e+00 -3.061768640514334283e+00
7.803700061413826994e+00 -3.081457106559522874e+00
7.884150577510876445e+00 -3.085433530457862172e+00
7.964601093607927673e+00 -3.085669578569037785e+00
8.045051609704977125e+00 -3.084078890060447442e+00
8.125502125802025688e+00 -3.076131617261939066e+00
8.205952641899076028e+00 -3.032598399472105744e+00
8.286403157996124591e+00 -3.023056280175214994e+00
8.366853674093176707e+00 -3.035878219926727795e+00
8.447304190190225270e+00 -3.057794528135835410e+00
8.527754706287275610e+00 -3.067299986168714909e+00
8.608205222384324173e+00 -3.081572931973154184e+00
8.688655738481374513e+00 -3.091038569003963676e+00
8.769106254578423076e+00 -3.086838889065176783e+00
8.849556770675475192e+00 -3.064026083477860318e+00
8.930007286772523756e+00 -3.050192077693729686e+00
9.010457802869574095e+00 -3.063301782579565646e+00
9.090908318966622659e+00 -3.075970901193101792e+00
9.171358835063672998e+00 -3.093443482914277176e+00
9.251809351160723338e+00 -3.112702816262601146e+00
9.332259867257773678e+00 -3.110946109212408661e+00
9.412710383354822241e+00 -3.108525606443859335e+00
9.493160899451872581e+00 -3.112437967018515828e+00
9.573611415548921144e+00 -3.096163842397877453e+00
9.654061931645971484e+00 -3.077516676647756189e+00
9.734512447743021823e+00 -3.074385195708523977e+00
9.814962963840072163e+00 -3.078747596070991577e+00
9.895413479937120727e+00 -3.094052893833850071e+00
9.975863996034171066e+00 -3.086018267255318026e+00
1.005631451213121963e+01 -3.091580713517107171e+00
1.013676502822827175e+01 -3.126310797737334557e+00
1.021721554432532031e+01 -3.162903850106030479e+00
1.029766606042237065e+01 -3.159334355316425036e+00
