0.000000000000000000e+00 -1.549019599857431873e-01
8.045051609704977069e-02 -1.852271399984000977e-01
1.609010321940995414e-01 -4.586396700795010162e-01
2.413515482911492982e-01 -9.654339036537888941e-01
3.218020643881990828e-01 -1.252342354505028066e+00
4.022525804852488118e-01 -1.577794156867050157e+00
4.827030965822985964e-01 -2.036107903962768972e+00
5.631536126793483810e-01 -2.448285287062104132e+00
6.436041287763981655e-01 -2.764075012674941600e+00
7.240546448734478391e-01 -3.020120915487089608e+00
8.045051609704976237e-01 -3.190940008471006895e+00
8.849556770675472972e-01 -3.195926612943360112e+00
9.654061931645971928e-01 -3.129228259024265935e+00
1.045856709261647088e+00 -3.153651006924860667e+00
1.126307225358696762e+00 -3.234222402531502727e+00
1.206757741455746435e+00 -3.288696205746191481e+00
1.287208257552796331e+00 -3.317966667176822870e+00
1.367658773649846005e+00 -3.354604040549308941e+00
1.448109289746895678e+00 -3.332219400967158851e+00
1.528559805843945352e+00 -3.287936951610699321e+00
1.609010321940995247e+00 -3.232267365958104932e+00
1.689460838038045143e+00 -3.153860486598365043e+00
1.769911354135094594e+00 -3.072642737241184641e+00
1.850361870232144490e+00 -3.039064381812670579e+00
1.930812386329194386e+00 -3.059172779375986639e+00
2.011262902426244281e+00 -3.044223682976884948e+00
2.091713418523294177e+00 -2.971449947018344862e+00
2.172163934620343628e+00 -2.905009957522732833e+00
2.252614450717393524e+00 -2.819410134345219365e+00
2.333064966814443419e+00 -2.770629378460194303e+00
2.413515482911492871e+00 -2.797416444984001327e+00
2.493965999008542767e+00 -2.880404789070238891e+00
2.574416515105592662e+00 -2.917078424453659835e+00
2.654867031202642558e+00 -2.905679051542605862e+00
2.735317547299692009e+00 -2.915169241461993632e+00
2.815768063396741905e+00 -2.954022211218505500e+00
2.896218579493791356e+00 -2.963829911730918809e+00
2.976669095590841252e+00 -2.967310092244450637e+00
3.057119611687890703e+00 -2.945009758543601919e+00
3.137570127784940599e+00 -2.920204418811674696e+00
3.218020643881990495e+00 -2.910158516223048331e+00
3.298471159979039946e+00 -2.916729454950694134e+00
3.378921676076090286e+00 -2.870590747701724510e+00
3.459372192173139737e+00 -2.815454230619296006e+00
3.539822708270189189e+00 -2.828269810573910359e+00
3.620273224367239528e+00 -2.908963316688053524e+00
3.700723740464288980e+00 -2.988007950648105648e+00
3.781174256561339320e+00 -2.984868276971879286e+00
3.861624772658388771e+00 -2.990174822108449870e+00
3.942075288755438223e+00 -3.015488543351310113e+00
4.022525804852488562e+00 -3.012543209660940136e+00
4.102976320949538014e+00 -2.989861635154036801e+00
4.183426837046588354e+00 -2.960193655654537626e+00
4.263877353143637805e+00 -2.946483909659388001e+00
4.344327869240687257e+00 -2.939439862896474409e+00
4.424778385337737596e+00 -2.949236111765423107e+00
4.505228901434787048e+00 -2.946384278653037647e+00
4.585679417531836499e+00 -2.940394270590156456e+00
4.666129933628886839e+00 -2.920563797631075431e+00
4.746580449725936290e+00 -2.912026234108273659e+00
4.827030965822985742e+00 -2.939805432677588648e+00
4.907481481920036082e+00 -2.965500456824923248e+00
4.987931998017085533e+00 -2.982886349113051061e+00
5.068382514114135873e+00 -2.990407152177086303e+00
5.148833030211185324e+00 -2.970946082567455182e+00
5.229283546308234776e+00 -2.948369609819587289e+00
5.309734062405285115e+00 -2.944034422256159189e+00
5.390184578502334567e+00 -2.940007992703570494e+00
5.470635094599384018e+00 -2.946790654186994818e+00
5.551085610696433470e+00 -2.959353513264571856e+00
5.631536126793483810e+00 -2.962492239256745208e+00
5.711986642890533261e+00 -2.943374858532512128e+00
5.792437158987582713e+00 -2.948013071549414832e+00
5.872887675084633052e+00 -2.946413264096353846e+00
5.953338191181682504e+00 -2.957007288604694750e+00
6.033788707278731955e+00 -2.952197949658282639e+00
6.114239223375781407e+00 -2.944680968775666763e+00
6.194689739472831747e+00 -2.955210553649416205e+00
6.275140255569881198e+00 -2.968255057950910825e+00
6.355590771666931538e+00 -2.978956340748712517e+00
6.436041287763980989e+00 -2.959801742462575991e+00
6.516491803861030441e+00 -2.950343007507949089e+00
6.596942319958079892e+00 -2.958726613696125440e+00
6.677392836055131120e+00 -2.947548002754075469e+00
6.757843352152180572e+00 -2.937814810537209720e+00
6.838293868249230023e+00 -2.980423247871931913e+00
6.918744384346279475e+00 -3.019534150641374204e+00
6.999194900443328926e+00 -3.009076307840000908e+00
7.079645416540378378e+00 -2.991928454017567685e+00
7.160095932637429605e+00 -3.011772091756585557e+00
7.240546448734479057e+00 -3.018203721049141475e+00
7.320996964831528508e+00 -3.008535637334955659e+00
7.401447480928577960e+00 -2.967653731669923189e+00
7.481897997025627411e+00 -2.954983459954749758e+00
7.562348513122678639e+00 -2.962132079665626527e+00
7.642799029219728091e+00 -2.984802392981078079e+00
7.723249545316777542e+00 -3.004714219626769101e+00
7.803700061413826994e+00 -3.038710323191289309e+00
7.884150577510876445e+00 -3.061535520592726378e+00
7.964601093607927673e+00 -3.035862523636362997e+00
8.045051609704977125e+00 -2.994996922262580519e+00
8.125502125802025688e+00 -2.980296832092176107e+00
8.205952641899076028e+00 -2.993696509799324446e+00
8.286403157996124591e+00 -3.019201879118941001e+00
8.366853674093176707e+00 -3.035409211793233641e+00
8.447304190190225270e+00 -3.036399960959734301e+00
8.527754706287275610e+00 -3.053103527432934339e+00
8.608205222384324173e+00 -3.088507811479251242e+00
8.688655738481374513e+00 -3.106199796913771127e+00
8.769106254578423076e+00 -3.106410837162333571e+00
8.849556770675475192e+00 -3.119507341688931401e+00
8.930007286772523756e+00 -3.129265973868314177e+00
9.010457802869574095e+00 -3.146620177548218766e+00
9.090908318966622659e+00 -3.131069192488150410e+00
9.171358835063672998e+00 -3.088671512251036866e+00
9.251809351160723338e+00 -3.081487103770255587e+00
9.332259867257773678e+00 -3.096538424143579160e+00
9.412710383354822241e+00 -3.111310659605472484e+00
9.493160899451872581e+00 -3.122215125617405995e+00
9.573611415548921144e+00 -3.120471421584063876e+00
9.654061931645971484e+00 -3.120596272601717125e+00
9.734512447743021823e+00 -3.109148600032895171e+00
9.814962963840072163e+00 -3.111623711314239316e+00
9.895413479937120727e+00 -3.129104162651036525e+00
9.975863996034171066e+00 -3.146205303036261558e+00
1.005631451213121963e+01 -3.133185362801615081e+00
1.013676502822827175e+01 -3.114178919414034130e+00
1.021721554432532031e+01 -3.135065417337536076e+00
1.029766606042237065e+01 -3.136620621950093390e+00
