0.000000000000000000e+00 -1.549019599857431873e-01
8.045051609704977069e-02 -1.880641032585040617e-01
1.609010321940995414e-01 -4.843737388378538400e-01
2.413515482911492982e-01 -1.176435069719072413e+00
3.218020643881990828e-01 -1.713609834234411267e+00
4.022525804852488118e-01 -2.048226577063889220e+00
4.827030965822985964e-01 -2.405593800261502491e+00
5.631536126793483810e-01 -2.839117707543114655e+00
6.436041287763981655e-01 -3.115835407477420826e+00
7.240546448734478391e-01 -3.375340220363325372e+00
8.045051609704976237e-01 -3.507708096970937550e+00
8.849556770675472972e-01 -3.561803387937647170e+00
9.654061931645971928e-01 -3.577957623408885013e+00
1.045856709261647088e+00 -3.596738607001331633e+00
1.126307225358696762e+00 -3.630139012728707648e+00
1.206757741455746435e+00 -3.600509247866450213e+00
1.287208257552796331e+00 -3.586757744641395185e+00
1.367658773649846005e+00 -3.532993165468645724e+00
1.448109289746895678e+00 -3.470508969492316798e+00
1.528559805843945352e+00 -3.466523433489712147e+00
1.609010321940995247e+00 -3.456923767793622204e+00
1.689460838038045143e+00 -3.423063329078882777e+00
1.769911354135094594e+00 -3.410575082309144523e+00
1.850361870232144490e+00 -3.395043117487075435e+00
1.930812386329194386e+00 -3.323814571739269752e+00
2.011262902426244281e+00 -3.241661475790956093e+00
2.091713418523294177e+00 -3.210629719534410675e+00
2.172163934620343628e+00 -3.197044777761568923e+00
2.252614450717393524e+00 -3.154493710948174989e+00
2.333064966814443419e+00 -3.132843574388414432e+00
2.413515482911492871e+00 -3.169258828042582188e+00
2.493965999008542767e+00 -3.212093562606213482e+00
2.574416515105592662e+00 -3.152392223044627961e+00
2.654867031202642558e+00 -3.119407175747548333e+00
2.735317547299692009e+00 -3.148825338792702322e+00
2.815768063396741905e+00 -3.187293604537934755e+00
2.896218579493791356e+00 -3.171184624618966108e+00
2.976669095590841252e+00 -3.136507735198438507e+00
3.057119611687890703e+00 -3.146528814853528200e+00
3.137570127784940599e+00 -3.163967371992211230e+00
3.218020643881990495e+00 -3.113822274781191890e+00
3.298471159979039946e+00 -3.076380757087763040e+00
3.378921676076090286e+00 -3.067972817598965563e+00
3.459372192173139737e+00 -3.105558473493187588e+00
3.539822708270189189e+00 -3.151786970881317096e+00
3.620273224367239528e+00 -3.147155028326904080e+00
3.700723740464288980e+00 -3.134243280227448469e+00
3.781174256561339320e+00 -3.145158325484518791e+00
3.861624772658388771e+00 -3.147523711557632442e+00
3.942075288755438223e+00 -3.115810434808287344e+00
4.022525804852488562e+00 -3.063207694704343176e+00
4.102976320949538014e+00 -3.037434489785194813e+00
4.183426837046588354e+00 -3.046241147800954341e+00
4.263877353143637805e+00 -3.097928517182135799e+00
4.344327869240687257e+00 -3.159444375202057120e+00
4.424778385337737596e+00 -3.192954504915462621e+00
4.505228901434787048e+00 -3.173134581984153879e+00
4.585679417531836499e+00 -3.142542104231525801e+00
4.666129933628886839e+00 -3.141659409106938750e+00
4.746580449725936290e+00 -3.156689295521901251e+00
4.827030965822985742e+00 -3.168369268897350377e+00
4.907481481920036082e+00 -3.164922944319676024e+00
4.987931998017085533e+00 -3.171328519666579027e+00
5.068382514114135873e+00 -3.163186527129064007e+00
5.148833030211185324e+00 -3.153421350713067284e+00
5.229283546308234776e+00 -3.139601481081680134e+00
5.309734062405285115e+00 -3.127012080941159677e+00
5.390184578502334567e+00 -3.120522006299744522e+00
5.470635094599384018e+00 -3.119149196193743645e+00
5.551085610696433470e+00 -3.130151061101331234e+00
5.631536126793483810e+00 -3.184115744429384609e+00
5.711986642890533261e+00 -3.247705142433669145e+00
5.792437158987582713e+00 -3.255911700957558885e+00
5.872887675084633052e+00 -3.206585492921241176e+00
5.953338191181682504e+00 -3.179309596807426086e+00
6.033788707278731955e+00 -3.170930759186330494e+00
6.114239223375781407e+00 -3.156531605407783214e+00
6.194689739472831747e+00 -3.153304145903426114e+00
6.275140255569881198e+00 -3.158196119385456413e+00
6.355590771666931538e+00 -3.167203637694098184e+00
6.436041287763980989e+00 -3.151331198792092447e+00
6.516491803861030441e+00 -3.118842091097535629e+00
6.596942319958079892e+00 -3.089750667290417585e+00
6.677392836055131120e+00 -3.098258906870817952e+00
6.757843352152180572e+00 -3.113874870870848799e+00
6.838293868249230023e+00 -3.146820373700805806e+00
6.918744384346279475e+00 -3.176596180696307670e+00
6.999194900443328926e+00 -3.177570382533330573e+00
7.079645416540378378e+00 -3.162952832530659730e+00
7.160095932637429605e+00 -3.145706025447578824e+00
7.240546448734479057e+00 -3.132651943284145091e+00
7.320996964831528508e+00 -3.155183663202717703e+00
7.401447480928577960e+00 -3.183402342749678038e+00
7.481897997025627411e+00 -3.208665535084166631e+00
7.562348513122678639e+00 -3.229078756726081245e+00
7.642799029219728091e+00 -3.216154621530376456e+00
7.723249545316777542e+00 -3.206061500885773352e+00
7.803700061413826994e+00 -3.217884226440745898e+00
7.884150577510876445e+00 -3.217151768383399446e+00
7.964601093607927673e+00 -3.201210384043851054e+00
8.045051609704977125e+00 -3.178822826202999607e+00
8.125502125802025688e+00 -3.185080394635128265e+00
8.205952641899076028e+00 -3.200782275496114604e+00
8.286403157996124591e+00 -3.203786411957229685e+00
8.366853674093176707e+00 -3.204665640329943610e+00
8.447304190190225270e+00 -3.219320293109220188e+00
8.527754706287275610e+00 -3.224554343756132369e+00
8.608205222384324173e+00 -3.204552008779054439e+00
8.688655738481374513e+00 -3.185665271683245869e+00
8.769106254578423076e+00 -3.185151798435224446e+00
8.849556770675475192e+00 -3.198607741197402099e+00
8.930007286772523756e+00 -3.213896001058462293e+00
9.010457802869574095e+00 -3.211863896374566263e+00
9.090908318966622659e+00 -3.236692047583090037e+00
9.171358835063672998e+00 -3.253955305350287208e+00
9.251809351160723338e+00 -3.262142271129205628e+00
9.332259867257773678e+00 -3.246712821860007203e+00
9.412710383354822241e+00 -3.227700945365522323e+00
9.493160899451872581e+00 -3.244981457995427032e+00
9.573611415548921144e+00 -3.268150380255394172e+00
9.654061931645971484e+00 -3.275676600837765573e+00
9.734512447743021823e+00 -3.284183887610823138e+00
9.814962963840072163e+00 -3.299193905377746816e+00
9.895413479937120727e+00 -3.326638413136996153e+00
9.975863996034171066e+00 -3.326433231212060804e+00
1.005631451213121963e+01 -3.310698022433037568e+00
1.013676502822827175e+01 -3.289469739550750393e+00
1.021721554432532031e+01 -3.292868332785124252e+00
1.029766606042237065e+01 -3.310676894851850793e+00
