0.000000000000000000e+00 -1.549019599857431873e-01
8.045051609704977069e-02 -1.895527154262700298e-01
1.609010321940995414e-01 -5.008035480576127352e-01
2.413515482911492982e-01 -1.193382971124596015e+00
3.218020643881990828e-01 -1.722164467678080069e+00
4.022525804852488118e-01 -2.184175030532314654e+00
4.827030965822985964e-01 -2.571818882313730015e+00
5.631536126793483810e-01 -2.833021165121795359e+00
6.436041287763981655e-01 -3.135666341677072477e+00
7.240546448734478391e-01 -3.373246090718404755e+00
8.045051609704976237e-01 -3.488350287970371610e+00
8.849556770675472972e-01 -3.555916075981664370e+00
9.654061931645971928e-01 -3.571356860486008866e+00
1.045856709261647088e+00 -3.579982938510885671e+00
1.126307225358696762e+00 -3.594925022614310794e+00
1.206757741455746435e+00 -3.645385440118693143e+00
1.287208257552796331e+00 -3.659375132744505876e+00
1.367658773649846005e+00 -3.646641423570827101e+00
1.448109289746895678e+00 -3.662848732774309113e+00
1.528559805843945352e+00 -3.643385395658590653e+00
1.609010321940995247e+00 -3.568112904148954101e+00
1.689460838038045143e+00 -3.487652227796621318e+00
1.769911354135094594e+00 -3.371112355819249284e+00
1.850361870232144490e+00 -3.264705328363860293e+00
1.930812386329194386e+00 -3.147335042618127243e+00
2.011262902426244281e+00 -3.008296247214119923e+00
2.091713418523294177e+00 -2.920253748839047869e+00
2.172163934620343628e+00 -2.950258983858166761e+00
2.252614450717393524e+00 -3.022909185084489359e+00
2.333064966814443419e+00 -3.072829259509163080e+00
2.413515482911492871e+00 -3.095931639308194150e+00
2.493965999008542767e+00 -3.117062517677712474e+00
2.574416515105592662e+00 -3.161917768982390964e+00
2.654867031202642558e+00 -3.177022174157439149e+00
2.735317547299692009e+00 -3.139146745717513287e+00
2.815768063396741905e+00 -3.133506454774157124e+00
2.896218579493791356e+00 -3.164398180518986248e+00
2.976669095590841252e+00 -3.189042937089560770e+00
3.057119611687890703e+00 -3.170781800158064545e+00
3.137570127784940599e+00 -3.126888028113134599e+00
3.218020643881990495e+00 -3.072082717195963042e+00
3.298471159979039946e+00 -3.061269191815303881e+00
3.378921676076090286e+00 -3.058968840090218411e+00
3.459372192173139737e+00 -3.045870544149830828e+00
3.539822708270189189e+00 -3.042216733927768146e+00
3.620273224367239528e+00 -3.075338399945940715e+00
3.700723740464288980e+00 -3.090035514662291316e+00
3.781174256561339320e+00 -3.090021624759580643e+00
3.861624772658388771e+00 -3.058748614818621814e+00
3.942075288755438223e+00 -3.037571267555549959e+00
4.022525804852488562e+00 -3.054259732355727230e+00
4.102976320949538014e+00 -3.082892089869231800e+00
4.183426837046588354e+00 -3.095660730860906096e+00
4.263877353143637805e+00 -3.102323625454331602e+00
4.344327869240687257e+00 -3.126220088792016405e+00
4.424778385337737596e+00 -3.141670518349260366e+00
4.505228901434787048e+00 -3.139937961870714833e+00
4.585679417531836499e+00 -3.132753760435656787e+00
4.666129933628886839e+00 -3.110374839575757999e+00
4.746580449725936290e+00 -3.081700911807788490e+00
4.827030965822985742e+00 -3.098522908295588962e+00
4.907481481920036082e+00 -3.129888103295372481e+00
4.987931998017085533e+00 -3.147231780974926174e+00
5.068382514114135873e+00 -3.143868844058474110e+00
5.148833030211185324e+00 -3.140842091405410930e+00
5.229283546308234776e+00 -3.165972728007019121e+00
5.309734062405285115e+00 -3.177366857335577777e+00
5.390184578502334567e+00 -3.163491060657311227e+00
5.470635094599384018e+00 -3.177309575380031337e+00
5.551085610696433470e+00 -3.184668668939379721e+00
5.631536126793483810e+00 -3.165675610617774804e+00
5.711986642890533261e+00 -3.141692880343586403e+00
5.792437158987582713e+00 -3.165132747391883772e+00
5.872887675084633052e+00 -3.192513121313760305e+00
5.953338191181682504e+00 -3.188123267343933698e+00
6.033788707278731955e+00 -3.175014054740246117e+00
6.114239223375781407e+00 -3.173147425936916122e+00
6.194689739472831747e+00 -3.177149355752244109e+00
6.275140255569881198e+00 -3.158672298692728475e+00
6.355590771666931538e+00 -3.150568529375634252e+00
6.436041287763980989e+00 -3.151901012190950979e+00
6.516491803861030441e+00 -3.155438511850179317e+00
6.596942319958079892e+00 -3.154669015788378772e+00
6.677392836055131120e+00 -3.148424729756493790e+00
6.757843352152180572e+00 -3.150721439144805291e+00
6.838293868249230023e+00 -3.151933854337379159e+00
6.918744384346279475e+00 -3.158047227419034986e+00
6.999194900443328926e+00 -3.148522815351987969e+00
7.079645416540378378e+00 -3.167385914289513327e+00
7.160095932637429605e+00 -3.211252259710993151e+00
7.240546448734479057e+00 -3.223381744519429049e+00
7.320996964831528508e+00 -3.215715752438651265e+00
7.401447480928577960e+00 -3.223828480634126858e+00
7.481897997025627411e+00 -3.244429641634151817e+00
7.562348513122678639e+00 -3.276769390692903183e+00
7.642799029219728091e+00 -3.275546259186289610e+00
7.723249545316777542e+00 -3.262073005188031782e+00
7.803700061413826994e+00 -3.240684738211688121e+00
7.884150577510876445e+00 -3.206482891783724032e+00
7.964601093607927673e+00 -3.182179065352561231e+00
8.045051609704977125e+00 -3.197724495411846224e+00
8.125502125802025688e+00 -3.258030736231644298e+00
8.205952641899076028e+00 -3.275247642504689694e+00
8.286403157996124591e+00 -3.250814184046380895e+00
8.366853674093176707e+00 -3.238479743445648484e+00
8.447304190190225270e+00 -3.222260516341187486e+00
8.527754706287275610e+00 -3.207686783457757151e+00
8.608205222384324173e+00 -3.202890622422644107e+00
8.688655738481374513e+00 -3.226157574293004870e+00
8.769106254578423076e+00 -3.247391622247413512e+00
8.849556770675475192e+00 -3.263058408767530505e+00
8.930007286772523756e+00 -3.261133137180950659e+00
9.010457802869574095e+00 -3.257802381158065419e+00
9.090908318966622659e+00 -3.250746174111996289e+00
9.171358835063672998e+00 -3.248052228805346608e+00
9.251809351160723338e+00 -3.258968903799068784e+00
9.332259867257773678e+00 -3.266416522856264049e+00
9.412710383354822241e+00 -3.275562387586658186e+00
9.493160899451872581e+00 -3.278764190539640744e+00
9.573611415548921144e+00 -3.268863513717735092e+00
9.654061931645971484e+00 -3.282025545516054077e+00
9.734512447743021823e+00 -3.303615385888887701e+00
9.814962963840072163e+00 -3.320934456594798689e+00
9.895413479937120727e+00 -3.324646597485052979e+00
9.975863996034171066e+00 -3.299222058091490606e+00
1.005631451213121963e+01 -3.287298248021121250e+00
1.013676502822827175e+01 -3.290584733085597957e+00
1.021721554432532031e+01 -3.306313473265984904e+00
1.029766606042237065e+01 -3.291498430096855277e+00
