0.000000000000000000e+00 -1.549019599857431873e-01
8.045051609704977069e-02 -1.984310433454930245e-01
1.609010321940995414e-01 -4.941350473236590379e-01
2.413515482911492982e-01 -1.105859206204200085e+00
3.218020643881990828e-01 -1.563537422564465373e+00
4.022525804852488118e-01 -2.245428448772421870e+00
4.827030965822985964e-01 -2.774266143852955668e+00
5.631536126793483810e-01 -3.043973532042536956e+00
6.436041287763981655e-01 -3.190186775070674496e+00
7.240546448734478391e-01 -3.299518671922845314e+00
8.045051609704976237e-01 -3.472842246129280053e+00
8.849556770675472972e-01 -3.554483009567731777e+00
9.654061931645971928e-01 -3.605033638282836961e+00
1.045856709261647088e+00 -3.693092436465035711e+00
1.126307225358696762e+00 -3.731976156009136680e+00
1.206757741455746435e+00 -3.706388887298114554e+00
1.287208257552796331e+00 -3.620161713453295960e+00
1.367658773649846005e+00 -3.561575440876206144e+00
1.448109289746895678e+00 -3.579521004933293504e+00
1.528559805843945352e+00 -3.586844430156475916e+00
1.609010321940995247e+00 -3.475992465729120795e+00
1.689460838038045143e+00 -3.363118666377973742e+00
1.769911354135094594e+00 -3.321301377164007196e+00
1.850361870232144490e+00 -3.308569845493771311e+00
1.930812386329194386e+00 -3.292503111089311929e+00
2.011262902426244281e+00 -3.274846774268173721e+00
2.091713418523294177e+00 -3.243786635278015140e+00
2.172163934620343628e+00 -3.221088407455602987e+00
2.252614450717393524e+00 -3.185709364528499510e+00
2.333064966814443419e+00 -3.110514453630284226e+00
2.413515482911492871e+00 -3.056724491646784614e+00
2.493965999008542767e+00 -3.097781529000052991e+00
2.574416515105592662e+00 -3.175640582373011611e+00
2.654867031202642558e+00 -3.206145216019596234e+00
2.735317547299692009e+00 -3.216333401040462725e+00
2.815768063396741905e+00 -3.226809005897886440e+00
2.896218579493791356e+00 -3.194475218752340417e+00
2.976669095590841252e+00 -3.176993029078647890e+00
3.057119611687890703e+00 -3.207331192318356727e+00
3.137570127784940599e+00 -3.228677391041316458e+00
3.218020643881990495e+00 -3.179174176218062975e+00
3.298471159979039946e+00 -3.144647318377689071e+00
3.378921676076090286e+00 -3.142148683888517979e+00
3.459372192173139737e+00 -3.167182397269649563e+00
3.539822708270189189e+00 -3.158076062294029374e+00
3.620273224367239528e+00 -3.121937723804040665e+00
3.700723740464288980e+00 -3.091407648843856659e+00
3.781174256561339320e+00 -3.119140260317740498e+00
3.861624772658388771e+00 -3.133136208754791152e+00
3.942075288755438223e+00 -3.116191747973853232e+00
4.022525804852488562e+00 -3.135067990126300774e+00
4.102976320949538014e+00 -3.180276867746837155e+00
4.183426837046588354e+00 -3.209714694235441534e+00
4.263877353143637805e+00 -3.215729199315501941e+00
4.344327869240687257e+00 -3.186822377867814193e+00
4.424778385337737596e+00 -3.116714321001706534e+00
4.505228901434787048e+00 -3.096544980473045161e+00
4.585679417531836499e+00 -3.153262405508182376e+00
4.666129933628886839e+00 -3.201437549309631425e+00
4.746580449725936290e+00 -3.181661237236359074e+00
4.827030965822985742e+00 -3.130681189807875242e+00
4.907481481920036082e+00 -3.131410614487713406e+00
4.987931998017085533e+00 -3.180321480007226587e+00
5.068382514114135873e+00 -3.199215830857186305e+00
5.148833030211185324e+00 -3.167340951342866973e+00
5.229283546308234776e+00 -3.132593728568934033e+00
5.309734062405285115e+00 -3.136870907617920423e+00
5.390184578502334567e+00 -3.155491589307353628e+00
5.470635094599384018e+00 -3.141913586253519686e+00
5.551085610696433470e+00 -3.115961829659857685e+00
5.631536126793483810e+00 -3.102377597601529757e+00
5.711986642890533261e+00 -3.114221695165437787e+00
5.792437158987582713e+00 -3.132885532755146585e+00
5.872887675084633052e+00 -3.149458864601471841e+00
5.953338191181682504e+00 -3.162941370737162750e+00
6.033788707278731955e+00 -3.174265091761260926e+00
6.114239223375781407e+00 -3.207766317406729684e+00
6.194689739472831747e+00 -3.219016393757613059e+00
6.275140255569881198e+00 -3.206294391252361375e+00
6.355590771666931538e+00 -3.182563872798764848e+00
6.436041287763980989e+00 -3.166384379245334113e+00
6.516491803861030441e+00 -3.164505893917053392e+00
6.596942319958079892e+00 -3.184784643345315303e+00
6.677392836055131120e+00 -3.208845109396255335e+00
6.757843352152180572e+00 -3.213688399672085971e+00
6.838293868249230023e+00 -3.190311031101596306e+00
6.918744384346279475e+00 -3.167206908307870883e+00
6.999194900443328926e+00 -3.166846577128689333e+00
7.079645416540378378e+00 -3.175840275511391031e+00
7.160095932637429605e+00 -3.193953535546874889e+00
7.240546448734479057e+00 -3.236083652282206291e+00
7.320996964831528508e+00 -3.243394974218184235e+00
7.401447480928577960e+00 -3.229237702457208758e+00
7.481897997025627411e+00 -3.216912484651854864e+00
7.562348513122678639e+00 -3.234687738415348512e+00
7.642799029219728091e+00 -3.255846658474750743e+00
7.723249545316777542e+00 -3.262314710815717778e+00
7.803700061413826994e+00 -3.250563010572453670e+00
7.884150577510876445e+00 -3.232709638113393957e+00
7.964601093607927673e+00 -3.223955497367063217e+00
8.045051609704977125e+00 -3.232102386888505041e+00
8.125502125802025688e+00 -3.242400515926950000e+00
8.205952641899076028e+00 -3.255963800536971764e+00
8.286403157996124591e+00 -3.263059371497997407e+00
8.366853674093176707e+00 -3.264942895886475682e+00
8.447304190190225270e+00 -3.272540076999708614e+00
8.527754706287275610e+00 -3.270689483250699858e+00
8.608205222384324173e+00 -3.255291124453991713e+00
8.688655738481374513e+00 -3.244905504413494235e+00
8.769106254578423076e+00 -3.224112053357797159e+00
8.849556770675475192e+00 -3.217680817406542104e+00
8.930007286772523756e+00 -3.238160134169143944e+00
9.010457802869574095e+00 -3.258292169633484558e+00
9.090908318966622659e+00 -3.253427308868424461e+00
9.171358835063672998e+00 -3.278120765472404052e+00
9.251809351160723338e+00 -3.330990623161093733e+00
9.332259867257773678e+00 -3.355520964003968043e+00
9.412710383354822241e+00 -3.324141699805468253e+00
9.493160899451872581e+00 -3.280593318492711408e+00
9.573611415548921144e+00 -3.259689234136261771e+00
9.654061931645971484e+00 -3.267713085087945224e+00
9.734512447743021823e+00 -3.276015059479740810e+00
9.814962963840072163e+00 -3.276777653486340203e+00
9.895413479937120727e+00 -3.274689682355753639e+00
9.975863996034171066e+00 -3.295206192093662168e+00
1.005631451213121963e+01 -3.308542881891110898e+00
1.013676502822827175e+01 -3.305149295250438435e+00
1.021721554432532031e+01 -3.313604643709328279e+00
1.029766606042237065e+01 -3.327527747142243975e+00
