0.000000000000000000e+00 -1.549019599857431873e-01
8.045051609704977069e-02 -1.971250046201456219e-01
1.609010321940995414e-01 -5.055875743435094272e-01
2.413515482911492982e-01 -1.005334684023572400e+00
3.218020643881990828e-01 -1.379836904151728216e+00
4.022525804852488118e-01 -2.043008583235242703e+00
4.827030965822985964e-01 -2.602565042850720101e+00
5.631536126793483810e-01 -2.996684096776145001e+00
6.436041287763981655e-01 -3.228783863660012354e+00
7.240546448734478391e-01 -3.266558716793000805e+00
8.045051609704976237e-01 -3.411648343774725145e+00
8.849556770675472972e-01 -3.592792191595670204e+00
9.654061931645971928e-01 -3.549477067866855240e+00
1.045856709261647088e+00 -3.523167825141898746e+00
1.126307225358696762e+00 -3.578323958250881454e+00
1.206757741455746435e+00 -3.652831922820481747e+00
1.287208257552796331e+00 -3.657490054046517169e+00
1.367658773649846005e+00 -3.581808230385276737e+00
1.448109289746895678e+00 -3.480425419885195382e+00
1.528559805843945352e+00 -3.453534627202861973e+00
1.609010321940995247e+00 -3.437523857643938641e+00
1.689460838038045143e+00 -3.384140186022392083e+00
1.769911354135094594e+00 -3.376582995301180112e+00
1.850361870232144490e+00 -3.461671050975708042e+00
1.930812386329194386e+00 -3.465980965432029492e+00
2.011262902426244281e+00 -3.332721460831951976e+00
2.091713418523294177e+00 -3.174701270321982349e+00
2.172163934620343628e+00 -3.053727600936585240e+00
2.252614450717393524e+00 -2.987337731315502953e+00
2.333064966814443419e+00 -2.966467898805016379e+00
2.413515482911492871e+00 -2.979191810625697379e+00
2.493965999008542767e+00 -3.010156312087900687e+00
2.574416515105592662e+00 -3.056122480894290838e+00
2.654867031202642558e+00 -3.065561317197512459e+00
2.735317547299692009e+00 -3.049804700445738703e+00
2.815768063396741905e+00 -3.040314466153675621e+00
2.896218579493791356e+00 -3.062822310898905886e+00
2.976669095590841252e+00 -3.105613908730951778e+00
3.057119611687890703e+00 -3.123904518611631431e+00
3.137570127784940599e+00 -3.121065644111991055e+00
3.218020643881990495e+00 -3.108819282698977560e+00
3.298471159979039946e+00 -3.095655175846460327e+00
3.378921676076090286e+00 -3.083664823721071535e+00
3.459372192173139737e+00 -3.086416476420547728e+00
3.539822708270189189e+00 -3.117280754235319140e+00
3.620273224367239528e+00 -3.138118360560318010e+00
3.700723740464288980e+00 -3.103465390740153040e+00
3.781174256561339320e+00 -3.062046985114916797e+00
3.861624772658388771e+00 -3.033921383254135851e+00
3.942075288755438223e+00 -3.050576732221265797e+00
4.022525804852488562e+00 -3.074084604572797641e+00
4.102976320949538014e+00 -3.113343304195892891e+00
4.183426837046588354e+00 -3.188488171225130952e+00
4.263877353143637805e+00 -3.245174963393182122e+00
4.344327869240687257e+00 -3.239139447572083608e+00
4.424778385337737596e+00 -3.204477322442659482e+00
4.505228901434787048e+00 -3.191669013797218124e+00
4.585679417531836499e+00 -3.166427544393753735e+00
4.666129933628886839e+00 -3.166064352331639409e+00
4.746580449725936290e+00 -3.177636444356462420e+00
4.827030965822985742e+00 -3.183350306852673839e+00
4.907481481920036082e+00 -3.148173662374956105e+00
4.987931998017085533e+00 -3.124588675209667432e+00
5.068382514114135873e+00 -3.127557086660015528e+00
5.148833030211185324e+00 -3.131673799068810826e+00
5.229283546308234776e+00 -3.112603235762413156e+00
5.309734062405285115e+00 -3.094103348456100022e+00
5.390184578502334567e+00 -3.111202468758610173e+00
5.470635094599384018e+00 -3.133962089963564512e+00
5.551085610696433470e+00 -3.139006642884210940e+00
5.631536126793483810e+00 -3.134354233009100099e+00
5.711986642890533261e+00 -3.150969842615424010e+00
5.792437158987582713e+00 -3.165978440587451814e+00
5.872887675084633052e+00 -3.168523171810600836e+00
5.953338191181682504e+00 -3.184601544925049321e+00
6.033788707278731955e+00 -3.190181725956652947e+00
6.114239223375781407e+00 -3.192794063347061062e+00
6.194689739472831747e+00 -3.209807307796967102e+00
6.275140255569881198e+00 -3.222916450597764992e+00
6.355590771666931538e+00 -3.210483191803970016e+00
6.436041287763980989e+00 -3.183876132367669864e+00
6.516491803861030441e+00 -3.168994193431798223e+00
6.596942319958079892e+00 -3.179550708289300864e+00
6.677392836055131120e+00 -3.183666487852247595e+00
6.757843352152180572e+00 -3.168419127261275392e+00
6.838293868249230023e+00 -3.168884573270091654e+00
6.918744384346279475e+00 -3.178436374615756232e+00
6.999194900443328926e+00 -3.178582936775552703e+00
7.079645416540378378e+00 -3.187501729803598582e+00
7.160095932637429605e+00 -3.196779428283597735e+00
7.240546448734479057e+00 -3.193489835393364729e+00
7.320996964831528508e+00 -3.220707428493461588e+00
7.401447480928577960e+00 -3.252865802472152623e+00
7.481897997025627411e+00 -3.242009415650001447e+00
7.562348513122678639e+00 -3.207003742354622045e+00
7.642799029219728091e+00 -3.173759134987273356e+00
7.723249545316777542e+00 -3.171962209593888637e+00
7.803700061413826994e+00 -3.167509086216198089e+00
7.884150577510876445e+00 -3.176408410953565742e+00
7.964601093607927673e+00 -3.191418043157111306e+00
8.045051609704977125e+00 -3.220407800745555882e+00
8.125502125802025688e+00 -3.217239969825020030e+00
8.205952641899076028e+00 -3.208579558123072051e+00
8.286403157996124591e+00 -3.197338071468357690e+00
8.366853674093176707e+00 -3.213080654165191952e+00
8.447304190190225270e+00 -3.229298694618803811e+00
8.527754706287275610e+00 -3.247458898468241539e+00
8.608205222384324173e+00 -3.252682281697373945e+00
8.688655738481374513e+00 -3.240295576249410558e+00
8.769106254578423076e+00 -3.232760377809411168e+00
8.849556770675475192e+00 -3.223827062824479395e+00
8.930007286772523756e+00 -3.220430535865694832e+00
9.010457802869574095e+00 -3.213594020321134170e+00
9.090908318966622659e+00 -3.234560507965201559e+00
9.171358835063672998e+00 -3.249528742326651454e+00
9.251809351160723338e+00 -3.253017715857486447e+00
9.332259867257773678e+00 -3.262747174297610186e+00
9.412710383354822241e+00 -3.279019556164189719e+00
9.493160899451872581e+00 -3.297293619555902833e+00
9.573611415548921144e+00 -3.307432857984748065e+00
9.654061931645971484e+00 -3.287369405089627161e+00
9.734512447743021823e+00 -3.262228441078732555e+00
9.814962963840072163e+00 -3.271493182445416537e+00
9.895413479937120727e+00 -3.301552803124057522e+00
9.975863996034171066e+00 -3.316203294069563157e+00
1.005631451213121963e+01 -3.336557160734482164e+00
1.013676502822827175e+01 -3.354165611885023157e+00
1.021721554432532031e+01 -3.342752216852082014e+00
1.029766606042237065e+01 -3.319742314508809411e+00
