0.000000000000000000e+00 -1.549019599857431873e-01
8.045051609704977069e-02 -1.791941222489680241e-01
1.609010321940995414e-01 -4.507498822655616189e-01
2.413515482911492982e-01 -1.049171590111273034e+00
3.218020643881990828e-01 -1.415565358925685358e+00
4.022525804852488118e-01 -1.699524289523265619e+00
4.827030965822985964e-01 -2.009196310173055888e+00
5.631536126793483810e-01 -2.307793642997241435e+00
6.436041287763981655e-01 -2.649340876458901040e+00
7.240546448734478391e-01 -2.880730807861251908e+00
8.045051609704976237e-01 -2.994900056780378073e+00
8.849556770675472972e-01 -3.099625427547397560e+00
9.654061931645971928e-01 -3.204024694939768381e+00
1.045856709261647088e+00 -3.232002428156259377e+00
1.126307225358696762e+00 -3.277055283861936008e+00
1.206757741455746435e+00 -3.347108997201333036e+00
1.287208257552796331e+00 -3.362370430439242774e+00
1.367658773649846005e+00 -3.271162303007018046e+00
1.448109289746895678e+00 -3.223494921487553011e+00
1.528559805843945352e+00 -3.217737211364656957e+00
1.609010321940995247e+00 -3.225859555827543801e+00
1.689460838038045143e+00 -3.182046287264915119e+00
1.769911354135094594e+00 -3.072083393912490301e+00
1.850361870232144490e+00 -2.990915022891505348e+00
1.930812386329194386e+00 -2.946044210751690873e+00
2.011262902426244281e+00 -2.979203540420304108e+00
2.091713418523294177e+00 -2.981570052449117547e+00
2.172163934620343628e+00 -2.921306543079285056e+00
2.252614450717393524e+00 -2.832506018843425011e+00
2.333064966814443419e+00 -2.796171401625752395e+00
2.413515482911492871e+00 -2.797250204626645864e+00
2.493965999008542767e+00 -2.852676638310473134e+00
2.574416515105592662e+00 -2.896333733957987544e+00
2.654867031202642558e+00 -2.932650827361945378e+00
2.735317547299692009e+00 -2.959512708914521895e+00
2.815768063396741905e+00 -2.950573975613660416e+00
2.896218579493791356e+00 -2.923899541853949291e+00
2.976669095590841252e+00 -2.934793976093715173e+00
3.057119611687890703e+00 -2.968732622957892087e+00
3.137570127784940599e+00 -2.953656310807887930e+00
3.218020643881990495e+00 -2.926824309002446167e+00
3.298471159979039946e+00 -2.938153442031976148e+00
3.378921676076090286e+00 -2.957729098466146400e+00
3.459372192173139737e+00 -2.990353581138597949e+00
3.539822708270189189e+00 -3.023140361704231172e+00
3.620273224367239528e+00 -3.045806899768340958e+00
3.700723740464288980e+00 -3.040330135794153676e+00
3.781174256561339320e+00 -3.014934867645946426e+00
3.861624772658388771e+00 -3.001159470319799016e+00
3.942075288755438223e+00 -3.004423260746635016e+00
4.022525804852488562e+00 -2.966746285774155112e+00
4.102976320949538014e+00 -2.959528306854079638e+00
4.183426837046588354e+00 -2.971812677472391417e+00
4.263877353143637805e+00 -2.995865269194334157e+00
4.344327869240687257e+00 -3.013831448736046248e+00
4.424778385337737596e+00 -3.020014945234949622e+00
4.505228901434787048e+00 -2.983197675999004428e+00
4.585679417531836499e+00 -2.924411775029104543e+00
4.666129933628886839e+00 -2.917700907400716304e+00
4.746580449725936290e+00 -2.957442080488476233e+00
4.827030965822985742e+00 -2.974376954084400282e+00
4.907481481920036082e+00 -2.975786701427741043e+00
4.987931998017085533e+00 -2.983553564273171865e+00
5.068382514114135873e+00 -2.981037743755512448e+00
5.148833030211185324e+00 -2.971077023569980824e+00
5.229283546308234776e+00 -2.953953549548136603e+00
5.309734062405285115e+00 -2.949709389446808938e+00
5.390184578502334567e+00 -2.973155719324720891e+00
5.470635094599384018e+00 -3.013523134426551842e+00
5.551085610696433470e+00 -3.021320101972310379e+00
5.631536126793483810e+00 -2.990109390676722434e+00
5.711986642890533261e+00 -2.958250257075747847e+00
5.792437158987582713e+00 -2.955827647308108208e+00
5.872887675084633052e+00 -2.969151590522289830e+00
5.953338191181682504e+00 -2.994380992551473053e+00
6.033788707278731955e+00 -3.022436569420959174e+00
6.114239223375781407e+00 -3.036194624150516663e+00
6.194689739472831747e+00 -3.017732602601822300e+00
6.275140255569881198e+00 -3.003806005510474719e+00
6.355590771666931538e+00 -2.987828473619129621e+00
6.436041287763980989e+00 -2.965507707054919173e+00
6.516491803861030441e+00 -2.957715331414991322e+00
6.596942319958079892e+00 -2.954735928295896930e+00
6.677392836055131120e+00 -2.977047560660294412e+00
6.757843352152180572e+00 -3.012964684003243576e+00
6.838293868249230023e+00 -3.021046395878427493e+00
6.918744384346279475e+00 -3.025194777889540276e+00
6.999194900443328926e+00 -3.027258041826976331e+00
7.079645416540378378e+00 -3.035917196589641875e+00
7.160095932637429605e+00 -3.064269362014792275e+00
7.240546448734479057e+00 -3.085073306928921788e+00
7.320996964831528508e+00 -3.093109850190062016e+00
7.401447480928577960e+00 -3.079201017734641610e+00
7.481897997025627411e+00 -3.051623270616009354e+00
7.562348513122678639e+00 -3.038598283873577444e+00
7.642799029219728091e+00 -3.048138796135791306e+00
7.723249545316777542e+00 -3.021723258105605048e+00
7.803700061413826994e+00 -2.974607430878342118e+00
7.884150577510876445e+00 -2.956300129142660715e+00
7.964601093607927673e+00 -2.965403256149114597e+00
8.045051609704977125e+00 -2.983855404022995206e+00
8.125502125802025688e+00 -2.993639341898001849e+00
8.205952641899076028e+00 -2.987566772547152194e+00
8.286403157996124591e+00 -2.992816003440254669e+00
8.366853674093176707e+00 -3.018212350786784626e+00
8.447304190190225270e+00 -3.034814410783396532e+00
8.527754706287275610e+00 -3.052769661329873152e+00
8.608205222384324173e+00 -3.062225121985228782e+00
8.688655738481374513e+00 -3.048904317765169569e+00
8.769106254578423076e+00 -3.046134288555223613e+00
8.849556770675475192e+00 -3.045534590384723295e+00
8.930007286772523756e+00 -3.043091572989691240e+00
9.010457802869574095e+00 -3.043717022782097548e+00
9.090908318966622659e+00 -3.058018308806954799e+00
9.171358835063672998e+00 -3.081983968301042154e+00
9.251809351160723338e+00 -3.077623791903383754e+00
9.332259867257773678e+00 -3.052162866292006616e+00
9.412710383354822241e+00 -3.045798195864938052e+00
9.493160899451872581e+00 -3.064561644998764933e+00
9.573611415548921144e+00 -3.091096152001866493e+00
9.654061931645971484e+00 -3.117309110070525247e+00
9.734512447743021823e+00 -3.113912518737605328e+00
9.814962963840072163e+00 -3.099838696699164675e+00
9.895413479937120727e+00 -3.091018731043646106e+00
9.975863996034171066e+00 -3.072912967521444827e+00
1.005631451213121963e+01 -3.070166438915974627e+00
1.013676502822827175e+01 -3.082401826159137936e+00
1.021721554432532031e+01 -3.116961862622784629e+00
1.029766606042237065e+01 -3.153999067683948887e+00
