0.000000000000000000e+00 -1.549019599857431873e-01
8.045051609704977069e-02 -2.024623286506285202e-01
1.609010321940995414e-01 -5.227783561696919268e-01
2.413515482911492982e-01 -9.225353615350490033e-01
3.218020643881990828e-01 -1.006649812930170196e+00
4.022525804852488118e-01 -1.341337579898880250e+00
4.827030965822985964e-01 -1.808264291599240625e+00
5.631536126793483810e-01 -2.312363967747950610e+00
6.436041287763981655e-01 -2.691875282214389209e+00
7.240546448734478391e-01 -2.840144876751993230e+00
8.045051609704976237e-01 -2.956801683336643283e+00
8.849556770675472972e-01 -3.028418018102054354e+00
9.654061931645971928e-01 -3.083948249628132743e+00
1.045856709261647088e+00 -3.196435279684498365e+00
1.126307225358696762e+00 -3.265075538694221180e+00
1.206757741455746435e+00 -3.293059801484851778e+00
1.287208257552796331e+00 -3.292991196493108230e+00
1.367658773649846005e+00 -3.251403082095884134e+00
1.448109289746895678e+00 -3.200378432536113760e+00
1.528559805843945352e+00 -3.214647620085135937e+00
1.609010321940995247e+00 -3.228364209624405845e+00
1.689460838038045143e+00 -3.145747972611832477e+00
1.769911354135094594e+00 -3.074416663551623241e+00
1.850361870232144490e+00 -3.034758139585093328e+00
1.930812386329194386e+00 -3.003302788878425833e+00
2.011262902426244281e+00 -2.964218800184120983e+00
2.091713418523294177e+00 -2.988761656855038140e+00
2.172163934620343628e+00 -3.049275249637783958e+00
2.252614450717393524e+00 -3.046221934784371310e+00
2.333064966814443419e+00 -3.044354883237987863e+00
2.413515482911492871e+00 -3.016964685740077812e+00
2.493965999008542767e+00 -2.956194794518165914e+00
2.574416515105592662e+00 -2.909554401958119207e+00
2.654867031202642558e+00 -2.938045431467297686e+00
2.735317547299692009e+00 -2.942596813174514825e+00
2.815768063396741905e+00 -2.920101474301056932e+00
2.896218579493791356e+00 -2.875186017848140541e+00
2.976669095590841252e+00 -2.902933106156914356e+00
3.057119611687890703e+00 -2.946069358846723940e+00
3.137570127784940599e+00 -2.949446202958588170e+00
3.218020643881990495e+00 -2.884027731482567525e+00
3.298471159979039946e+00 -2.860535903945249814e+00
3.378921676076090286e+00 -2.910370908867401685e+00
3.459372192173139737e+00 -2.926460889119393727e+00
3.539822708270189189e+00 -2.959991756176529876e+00
3.620273224367239528e+00 -2.980623334466318664e+00
3.700723740464288980e+00 -2.961541703573532747e+00
3.781174256561339320e+00 -2.962005980357567569e+00
3.861624772658388771e+00 -2.977470459492073118e+00
3.942075288755438223e+00 -3.009788437263169136e+00
4.022525804852488562e+00 -3.038660477261352799e+00
4.102976320949538014e+00 -3.009177721060432464e+00
4.183426837046588354e+00 -2.973255461728309346e+00
4.263877353143637805e+00 -2.951256521516588904e+00
4.344327869240687257e+00 -2.905156502955597908e+00
4.424778385337737596e+00 -2.908456215247245069e+00
4.505228901434787048e+00 -2.941612420707855780e+00
4.585679417531836499e+00 -2.918712334753838178e+00
4.666129933628886839e+00 -2.877655811208816861e+00
4.746580449725936290e+00 -2.888328183610839872e+00
4.827030965822985742e+00 -2.888634775130503929e+00
4.907481481920036082e+00 -2.904129223728476372e+00
4.987931998017085533e+00 -2.945777370055178146e+00
5.068382514114135873e+00 -2.970615235973375068e+00
5.148833030211185324e+00 -2.989080920293209598e+00
5.229283546308234776e+00 -3.022371159613369329e+00
5.309734062405285115e+00 -3.038925005885842356e+00
5.390184578502334567e+00 -3.015663844820111184e+00
5.470635094599384018e+00 -2.999459072321338571e+00
5.551085610696433470e+00 -2.968951948446380662e+00
5.631536126793483810e+00 -2.937393432026785156e+00
5.711986642890533261e+00 -2.917055602596159147e+00
5.792437158987582713e+00 -2.923873108214237959e+00
5.872887675084633052e+00 -2.968123938960961272e+00
5.953338191181682504e+00 -3.017928486375012209e+00
6.033788707278731955e+00 -3.039103098585189677e+00
6.114239223375781407e+00 -3.012600985100057915e+00
6.194689739472831747e+00 -2.997380142851999274e+00
6.275140255569881198e+00 -3.000359996421427144e+00
6.355590771666931538e+00 -2.990568688981398271e+00
6.436041287763980989e+00 -2.993465242513970725e+00
6.516491803861030441e+00 -3.016330699840160889e+00
6.596942319958079892e+00 -3.024893174408066709e+00
6.677392836055131120e+00 -3.056297335466734211e+00
6.757843352152180572e+00 -3.066868765416748133e+00
6.838293868249230023e+00 -3.031886344079689266e+00
6.918744384346279475e+00 -3.005508057512823239e+00
6.999194900443328926e+00 -3.022024454362552071e+00
7.079645416540378378e+00 -3.041030117497889318e+00
7.160095932637429605e+00 -3.043954901476563890e+00
7.240546448734479057e+00 -3.043781811803830895e+00
7.320996964831528508e+00 -3.049398525881915401e+00
7.401447480928577960e+00 -3.042355281227734132e+00
7.481897997025627411e+00 -3.036117505966205776e+00
7.562348513122678639e+00 -3.026441628888984159e+00
7.642799029219728091e+00 -3.006890736851334012e+00
7.723249545316777542e+00 -2.988850445035568182e+00
7.803700061413826994e+00 -2.977758106964613294e+00
7.884150577510876445e+00 -2.957590399836824702e+00
7.964601093607927673e+00 -2.965682052744945008e+00
8.045051609704977125e+00 -2.989214633682869326e+00
8.125502125802025688e+00 -3.008755652351688070e+00
8.205952641899076028e+00 -3.055064409087831834e+00
8.286403157996124591e+00 -3.101081695803666882e+00
8.366853674093176707e+00 -3.107772526619414499e+00
8.447304190190225270e+00 -3.096821113391138081e+00
8.527754706287275610e+00 -3.081672238090352955e+00
8.608205222384324173e+00 -3.069746555570717739e+00
8.688655738481374513e+00 -3.095693429515185002e+00
8.769106254578423076e+00 -3.129292699934096422e+00
8.849556770675475192e+00 -3.116964731571930880e+00
8.930007286772523756e+00 -3.079952847064123311e+00
9.010457802869574095e+00 -3.053417102180333575e+00
9.090908318966622659e+00 -3.030881261648631586e+00
9.171358835063672998e+00 -3.037520311726413347e+00
9.251809351160723338e+00 -3.056209210276829680e+00
9.332259867257773678e+00 -3.062568166864725328e+00
9.412710383354822241e+00 -3.073171245347606995e+00
9.493160899451872581e+00 -3.106439360702224484e+00
9.573611415548921144e+00 -3.137962665172729260e+00
9.654061931645971484e+00 -3.150163395594815618e+00
9.734512447743021823e+00 -3.138970647548919857e+00
9.814962963840072163e+00 -3.132876580863759308e+00
9.895413479937120727e+00 -3.144655074743794465e+00
9.975863996034171066e+00 -3.137649761251901204e+00
1.005631451213121963e+01 -3.134440476956896315e+00
1.013676502822827175e+01 -3.132904971408692951e+00
1.021721554432532031e+01 -3.119334173117449094e+00
1.029766606042237065e+01 -3.125415226856717688e+00
