0.000000000000000000e+00 -1.549019599857431873e-01
8.045051609704977069e-02 -1.976561388231865279e-01
1.609010321940995414e-01 -4.661517379153955476e-01
2.413515482911492982e-01 -9.938060126163992258e-01
3.218020643881990828e-01 -1.231845846496250063e+00
4.022525804852488118e-01 -1.513396897687318665e+00
4.827030965822985964e-01 -1.935606270218025005e+00
5.631536126793483810e-01 -2.447158588270541557e+00
6.436041287763981655e-01 -2.853339933331919376e+00
7.240546448734478391e-01 -2.944827907754141272e+00
8.045051609704976237e-01 -3.011860285226587663e+00
8.849556770675472972e-01 -3.082013401102401851e+00
9.654061931645971928e-01 -3.105085831057024848e+00
1.045856709261647088e+00 -3.079515862071097843e+00
1.126307225358696762e+00 -3.085612808853840150e+00
1.206757741455746435e+00 -3.147064099997887610e+00
1.287208257552796331e+00 -3.210068253040784025e+00
1.367658773649846005e+00 -3.218331876462369845e+00
1.448109289746895678e+00 -3.231811715655541928e+00
1.528559805843945352e+00 -3.239283910195358107e+00
1.609010321940995247e+00 -3.235643270164764829e+00
1.689460838038045143e+00 -3.196303697837360236e+00
1.769911354135094594e+00 -3.125698180070131560e+00
1.850361870232144490e+00 -3.042432075607699460e+00
1.930812386329194386e+00 -2.994448599014794876e+00
2.011262902426244281e+00 -2.953156844959025307e+00
2.091713418523294177e+00 -2.882318456948838481e+00
2.172163934620343628e+00 -2.792338734179361293e+00
2.252614450717393524e+00 -2.758280590264096332e+00
2.333064966814443419e+00 -2.785763851561885662e+00
2.413515482911492871e+00 -2.820761707239214822e+00
2.493965999008542767e+00 -2.852570712273235554e+00
2.574416515105592662e+00 -2.876586240546267437e+00
2.654867031202642558e+00 -2.894867213655131000e+00
2.735317547299692009e+00 -2.930354665469630859e+00
2.815768063396741905e+00 -2.986471813044311752e+00
2.896218579493791356e+00 -2.997523583363121968e+00
2.976669095590841252e+00 -2.992264742146152123e+00
3.057119611687890703e+00 -2.994998794713970458e+00
3.137570127784940599e+00 -2.997569048547948700e+00
3.218020643881990495e+00 -3.011633172317237150e+00
3.298471159979039946e+00 -3.022825954558970185e+00
3.378921676076090286e+00 -2.987727142719442952e+00
3.459372192173139737e+00 -2.946897483861769196e+00
3.539822708270189189e+00 -2.922966378016397915e+00
3.620273224367239528e+00 -2.903820914573979728e+00
3.700723740464288980e+00 -2.875967041851773764e+00
3.781174256561339320e+00 -2.879304511669333877e+00
3.861624772658388771e+00 -2.925146836265295924e+00
3.942075288755438223e+00 -2.944948381075669364e+00
4.022525804852488562e+00 -2.953541403624079464e+00
4.102976320949538014e+00 -2.973786914094005862e+00
4.183426837046588354e+00 -2.983777354365424905e+00
4.263877353143637805e+00 -2.965732743104273261e+00
4.344327869240687257e+00 -2.953529649299397430e+00
4.424778385337737596e+00 -2.948072737703903101e+00
4.505228901434787048e+00 -2.961261476819459393e+00
4.585679417531836499e+00 -2.986188580067886456e+00
4.666129933628886839e+00 -2.991671751706769022e+00
4.746580449725936290e+00 -2.981879644027118914e+00
4.827030965822985742e+00 -2.971279006920389154e+00
4.907481481920036082e+00 -2.984226212290225000e+00
4.987931998017085533e+00 -2.987466522754402831e+00
5.068382514114135873e+00 -2.974248916589119940e+00
5.148833030211185324e+00 -2.959460466066087481e+00
5.229283546308234776e+00 -2.936738508041780271e+00
5.309734062405285115e+00 -2.922210924867108872e+00
5.390184578502334567e+00 -2.922574978033819715e+00
5.470635094599384018e+00 -2.954427814079819914e+00
5.551085610696433470e+00 -3.006382109137600178e+00
5.631536126793483810e+00 -3.012014601079343379e+00
5.711986642890533261e+00 -3.001685167218540062e+00
5.792437158987582713e+00 -2.995613781407704845e+00
5.872887675084633052e+00 -2.983606715572947987e+00
5.953338191181682504e+00 -2.958594243990860129e+00
6.033788707278731955e+00 -2.921011779500451322e+00
6.114239223375781407e+00 -2.910001951979926282e+00
6.194689739472831747e+00 -2.922475049204336095e+00
6.275140255569881198e+00 -2.929985024285021389e+00
6.355590771666931538e+00 -2.926578680207568617e+00
6.436041287763980989e+00 -2.921017533568315283e+00
6.516491803861030441e+00 -2.955517185375944766e+00
6.596942319958079892e+00 -3.000874273919689639e+00
6.677392836055131120e+00 -3.034307329991001279e+00
6.757843352152180572e+00 -3.046546136560209561e+00
6.838293868249230023e+00 -3.033340830345685468e+00
6.918744384346279475e+00 -2.992859376408428140e+00
6.999194900443328926e+00 -2.982012852062978503e+00
7.079645416540378378e+00 -2.987499103550302681e+00
7.160095932637429605e+00 -2.976159027101225263e+00
7.240546448734479057e+00 -2.978736338133639361e+00
7.320996964831528508e+00 -2.988365585161396609e+00
7.401447480928577960e+00 -2.995335868584894534e+00
7.481897997025627411e+00 -2.993620112640277497e+00
7.562348513122678639e+00 -3.006907751302754672e+00
7.642799029219728091e+00 -3.042585347712008392e+00
7.723249545316777542e+00 -3.073579457545537963e+00
7.803700061413826994e+00 -3.071819878775314372e+00
7.884150577510876445e+00 -3.060973809019971181e+00
7.964601093607927673e+00 -3.045683986970451063e+00
8.045051609704977125e+00 -3.040313313353381286e+00
8.125502125802025688e+00 -3.040539028434422697e+00
8.205952641899076028e+00 -3.044494465879443723e+00
8.286403157996124591e+00 -3.047749974935783701e+00
8.366853674093176707e+00 -3.055184949033104225e+00
8.447304190190225270e+00 -3.053790990872742750e+00
8.527754706287275610e+00 -3.052660692502618289e+00
8.608205222384324173e+00 -3.076095322394786447e+00
8.688655738481374513e+00 -3.082955993633232694e+00
8.769106254578423076e+00 -3.067924000890406511e+00
8.849556770675475192e+00 -3.072048292850950713e+00
8.930007286772523756e+00 -3.088960257645218199e+00
9.010457802869574095e+00 -3.098376123281996186e+00
9.090908318966622659e+00 -3.099686917797306762e+00
9.171358835063672998e+00 -3.096744209117679336e+00
9.251809351160723338e+00 -3.091323697231709300e+00
9.332259867257773678e+00 -3.113324564734648359e+00
9.412710383354822241e+00 -3.151480734218405022e+00
9.493160899451872581e+00 -3.149375345226570921e+00
9.573611415548921144e+00 -3.134148073757851982e+00
9.654061931645971484e+00 -3.118156216430450822e+00
9.734512447743021823e+00 -3.109837738583024702e+00
9.814962963840072163e+00 -3.094678260101705991e+00
9.895413479937120727e+00 -3.078630033935084942e+00
9.975863996034171066e+00 -3.071923875366004975e+00
1.005631451213121963e+01 -3.095336303902936237e+00
1.013676502822827175e+01 -3.113842430186521515e+00
1.021721554432532031e+01 -3.125815884485279472e+00
1.029766606042237065e+01 -3.134310631143201409e+00
