0.000000000000000000e+00 -1.549019599857431873e-01
8.045051609704977069e-02 -3.919155967667014018e-01
1.609010321940995414e-01 -1.166961615921451090e+00
2.413515482911492982e-01 -2.501131750852011670e+00
3.218020643881990828e-01 -2.809171914396212610e+00
4.022525804852488118e-01 -3.221636186363733056e+00
4.827030965822985964e-01 -3.974260752864136936e+00
5.631536126793483810e-01 -4.827368017489564345e+00
6.436041287763981655e-01 -5.446850138037335753e+00
7.240546448734478391e-01 -5.729686078916383707e+00
8.045051609704976237e-01 -5.887932191567246676e+00
8.849556770675472972e-01 -6.127712093202297261e+00
9.654061931645971928e-01 -6.173618545639483202e+00
1.045856709261647088e+00 -6.231143608062200911e+00
1.126307225358696762e+00 -6.305142393175212412e+00
1.206757741455746435e+00 -6.435521398392255676e+00
1.287208257552796331e+00 -6.453608511234619094e+00
1.367658773649846005e+00 -6.470801759081338922e+00
1.448109289746895678e+00 -6.560338018007552563e+00
1.528559805843945352e+00 -6.613514914999019112e+00
1.609010321940995247e+00 -6.452159404585096070e+00
1.689460838038045143e+00 -6.368855429374656651e+00
1.769911354135094594e+00 -6.220817572595914058e+00
1.850361870232144490e+00 -6.030865870384458205e+00
1.930812386329194386e+00 -5.833909776112729872e+00
2.011262902426244281e+00 -5.754087983046748178e+00
2.091713418523294177e+00 -5.681937094371172670e+00
2.172163934620343628e+00 -5.648788185665445383e+00
2.252614450717393524e+00 -5.577795342551409519e+00
2.333064966814443419e+00 -5.633560934532233944e+00
2.413515482911492871e+00 -5.810335124125315609e+00
2.493965999008542767e+00 -5.865564460674301372e+00
2.574416515105592662e+00 -5.821294642208232339e+00
2.654867031202642558e+00 -5.872412024882942561e+00
2.735317547299692009e+00 -5.952894904054294223e+00
2.815768063396741905e+00 -6.021889483877768789e+00
2.896218579493791356e+00 -6.108024590952155108e+00
2.976669095590841252e+00 -6.086953627070895934e+00
3.057119611687890703e+00 -6.015549121591684312e+00
3.137570127784940599e+00 -6.009251590474673499e+00
3.218020643881990495e+00 -5.968834717771084541e+00
3.298471159979039946e+00 -5.860906437526236523e+00
3.378921676076090286e+00 -5.774274006079923360e+00
3.459372192173139737e+00 -5.852585658779695166e+00
3.539822708270189189e+00 -5.821309511188363039e+00
3.620273224367239528e+00 -5.718115610448028185e+00
3.700723740464288980e+00 -5.726843474632914877e+00
3.781174256561339320e+00 -5.836827408233954628e+00
3.861624772658388771e+00 -5.833119512859081368e+00
3.942075288755438223e+00 -5.759715976139851534e+00
4.022525804852488562e+00 -5.650585185963234558e+00
4.102976320949538014e+00 -5.623035616538719417e+00
4.183426837046588354e+00 -5.652392572790603253e+00
4.263877353143637805e+00 -5.682219457214341851e+00
4.344327869240687257e+00 -5.741503823413244056e+00
4.424778385337737596e+00 -5.816883445221835203e+00
4.505228901434787048e+00 -5.821698593720315174e+00
4.585679417531836499e+00 -5.838169465114735779e+00
4.666129933628886839e+00 -5.961332204174299321e+00
4.746580449725936290e+00 -6.016110648241615344e+00
4.827030965822985742e+00 -5.936815511354466501e+00
4.907481481920036082e+00 -5.888866055243852315e+00
4.987931998017085533e+00 -5.888399457852116825e+00
5.068382514114135873e+00 -5.972466288471761864e+00
5.148833030211185324e+00 -5.978128483748159638e+00
5.229283546308234776e+00 -5.910321259245251646e+00
5.309734062405285115e+00 -5.832588107483478446e+00
5.390184578502334567e+00 -5.814304093695025877e+00
5.470635094599384018e+00 -5.821810565586015507e+00
5.551085610696433470e+00 -5.845463014783649491e+00
5.631536126793483810e+00 -5.832302362211228441e+00
5.711986642890533261e+00 -5.812482692107182380e+00
5.792437158987582713e+00 -5.780980726700306604e+00
5.872887675084633052e+00 -5.845973938395531810e+00
5.953338191181682504e+00 -5.925192469329660483e+00
6.033788707278731955e+00 -5.974849409948034484e+00
6.114239223375781407e+00 -6.038203195625824193e+00
6.194689739472831747e+00 -6.039649592215910801e+00
6.275140255569881198e+00 -6.007296050598612602e+00
6.355590771666931538e+00 -6.026591454747356025e+00
6.436041287763980989e+00 -6.062032965639875037e+00
6.516491803861030441e+00 -6.025780433308881356e+00
6.596942319958079892e+00 -5.975503763338913643e+00
6.677392836055131120e+00 -5.986478124087392771e+00
6.757843352152180572e+00 -5.994924825715006733e+00
6.838293868249230023e+00 -6.034855982167433908e+00
6.918744384346279475e+00 -6.023285068827253674e+00
6.999194900443328926e+00 -6.032177538852140586e+00
7.079645416540378378e+00 -6.011240529080685846e+00
7.160095932637429605e+00 -5.944307400410810516e+00
7.240546448734479057e+00 -5.937242673510586322e+00
7.320996964831528508e+00 -6.000675785703998955e+00
7.401447480928577960e+00 -6.061668985975887658e+00
7.481897997025627411e+00 -6.039717412669327601e+00
7.562348513122678639e+00 -5.981876585059663576e+00
7.642799029219728091e+00 -5.958821012782252957e+00
7.723249545316777542e+00 -5.974726197457290056e+00
7.803700061413826994e+00 -6.018284522709444140e+00
7.884150577510876445e+00 -6.111309217159532459e+00
7.964601093607927673e+00 -6.146904006372070128e+00
8.045051609704977125e+00 -6.109102324107506199e+00
8.125502125802025688e+00 -6.057579225878201079e+00
8.205952641899076028e+00 -6.082121318354475115e+00
8.286403157996124591e+00 -6.158599999623306509e+00
8.366853674093176707e+00 -6.148599589556171807e+00
8.447304190190225270e+00 -6.135487837224253838e+00
8.527754706287275610e+00 -6.131692700928184081e+00
8.608205222384324173e+00 -6.159084682386867904e+00
8.688655738481374513e+00 -6.151899828499192147e+00
8.769106254578423076e+00 -6.127305431215883225e+00
8.849556770675475192e+00 -6.091605745780835690e+00
8.930007286772523756e+00 -6.115031927596130679e+00
9.010457802869574095e+00 -6.200289403493384199e+00
9.090908318966622659e+00 -6.226351954161338575e+00
9.171358835063672998e+00 -6.196071963328817489e+00
9.251809351160723338e+00 -6.129018513717359617e+00
9.332259867257773678e+00 -6.112227974019405430e+00
9.412710383354822241e+00 -6.123395546677589785e+00
9.493160899451872581e+00 -6.172317432597584919e+00
9.573611415548921144e+00 -6.215135115039184477e+00
9.654061931645971484e+00 -6.220525218485393637e+00
9.734512447743021823e+00 -6.198714054168371845e+00
9.814962963840072163e+00 -6.203638642265554282e+00
9.895413479937120727e+00 -6.254721307140575171e+00
9.975863996034171066e+00 -6.306048717065673159e+00
1.005631451213121963e+01 -6.319802217100688679e+00
1.013676502822827175e+01 -6.272422351383739603e+00
1.021721554432532031e+01 -6.250025335603750953e+00
1.029766606042237065e+01 -6.247176811988556011e+00
