0.000000000000000000e+00 -1.549019599857431873e-01
8.045051609704977069e-02 -1.869227398355770287e-01
1.609010321940995414e-01 -4.744189638751696858e-01
2.413515482911492982e-01 -1.141583738858115371e+00
3.218020643881990828e-01 -1.495555376138820503e+00
4.022525804852488118e-01 -1.889295118686852071e+00
4.827030965822985964e-01 -2.511084698666140369e+00
5.631536126793483810e-01 -2.851801111274117506e+00
6.436041287763981655e-01 -3.031371415878583164e+00
7.240546448734478391e-01 -3.143725639449416409e+00
8.045051609704976237e-01 -3.269705754094722305e+00
8.849556770675472972e-01 -3.371625768992900785e+00
9.654061931645971928e-01 -3.338943511153891208e+00
1.045856709261647088e+00 -3.376540031378592488e+00
1.126307225358696762e+00 -3.514085350893809245e+00
1.206757741455746435e+00 -3.602969575525625689e+00
1.287208257552796331e+00 -3.642084504953940982e+00
1.367658773649846005e+00 -3.581886832408735177e+00
1.448109289746895678e+00 -3.466589810819352468e+00
1.528559805843945352e+00 -3.391770011742324620e+00
1.609010321940995247e+00 -3.359806397482230977e+00
1.689460838038045143e+00 -3.326652663994289494e+00
1.769911354135094594e+00 -3.256819118533139434e+00
1.850361870232144490e+00 -3.187962464854708688e+00
1.930812386329194386e+00 -3.144939343947037891e+00
2.011262902426244281e+00 -3.142580028318736840e+00
2.091713418523294177e+00 -3.156664455458416452e+00
2.172163934620343628e+00 -3.193208370491980919e+00
2.252614450717393524e+00 -3.191871271162833423e+00
2.333064966814443419e+00 -3.147642491674590648e+00
2.413515482911492871e+00 -3.076613690424708558e+00
2.493965999008542767e+00 -3.055308911946606365e+00
2.574416515105592662e+00 -3.054410888732298268e+00
2.654867031202642558e+00 -3.007174932323013028e+00
2.735317547299692009e+00 -2.967886881654443254e+00
2.815768063396741905e+00 -3.031522619136289176e+00
2.896218579493791356e+00 -3.107070780666408183e+00
2.976669095590841252e+00 -3.131312293162141991e+00
3.057119611687890703e+00 -3.131820078328331203e+00
3.137570127784940599e+00 -3.133569306294015533e+00
3.218020643881990495e+00 -3.130284015685243393e+00
3.298471159979039946e+00 -3.106918460473082622e+00
3.378921676076090286e+00 -3.076233559187067090e+00
3.459372192173139737e+00 -3.064559538431726793e+00
3.539822708270189189e+00 -3.043511292365979948e+00
3.620273224367239528e+00 -3.039378209789352692e+00
3.700723740464288980e+00 -3.037102895115068701e+00
3.781174256561339320e+00 -3.038987961554697304e+00
3.861624772658388771e+00 -3.051578451693589766e+00
3.942075288755438223e+00 -3.061775130064777084e+00
4.022525804852488562e+00 -3.080868522989419045e+00
4.102976320949538014e+00 -3.101250127876391094e+00
4.183426837046588354e+00 -3.087828789545059127e+00
4.263877353143637805e+00 -3.100233625834503570e+00
4.344327869240687257e+00 -3.128237979767832577e+00
4.424778385337737596e+00 -3.160315127720984218e+00
4.505228901434787048e+00 -3.171405505841789374e+00
4.585679417531836499e+00 -3.154651548501185676e+00
4.666129933628886839e+00 -3.091195312388702821e+00
4.746580449725936290e+00 -3.071551496148297478e+00
4.827030965822985742e+00 -3.078188703911711954e+00
4.907481481920036082e+00 -3.090769168737761863e+00
4.987931998017085533e+00 -3.090553296911674686e+00
5.068382514114135873e+00 -3.112861482855115547e+00
5.148833030211185324e+00 -3.122325193517335506e+00
5.229283546308234776e+00 -3.073491462735165936e+00
5.309734062405285115e+00 -3.044699139683348932e+00
5.390184578502334567e+00 -3.058594587353598904e+00
5.470635094599384018e+00 -3.115126298610004341e+00
5.551085610696433470e+00 -3.145948203853486280e+00
5.631536126793483810e+00 -3.145857148364292755e+00
5.711986642890533261e+00 -3.110755356066071897e+00
5.792437158987582713e+00 -3.069563364996592991e+00
5.872887675084633052e+00 -3.054014170634233860e+00
5.953338191181682504e+00 -3.057002531462681638e+00
6.033788707278731955e+00 -3.067497764250984194e+00
6.114239223375781407e+00 -3.083697959390085508e+00
6.194689739472831747e+00 -3.113332078397846203e+00
6.275140255569881198e+00 -3.169089395012737231e+00
6.355590771666931538e+00 -3.196441444962760059e+00
6.436041287763980989e+00 -3.178108776176390649e+00
6.516491803861030441e+00 -3.168757240696391975e+00
6.596942319958079892e+00 -3.172199029287940508e+00
6.677392836055131120e+00 -3.176080613699014066e+00
6.757843352152180572e+00 -3.181068718026534015e+00
6.838293868249230023e+00 -3.187190540174180686e+00
6.918744384346279475e+00 -3.182502860927253874e+00
6.999194900443328926e+00 -3.182847493155609886e+00
7.079645416540378378e+00 -3.184248734082612220e+00
7.160095932637429605e+00 -3.180445065196204624e+00
7.240546448734479057e+00 -3.186446520352101519e+00
7.320996964831528508e+00 -3.205453134073755095e+00
7.401447480928577960e+00 -3.209543848603460425e+00
7.481897997025627411e+00 -3.210581774106883390e+00
7.562348513122678639e+00 -3.242171697716167422e+00
7.642799029219728091e+00 -3.262540673688068882e+00
7.723249545316777542e+00 -3.248992848226808672e+00
7.803700061413826994e+00 -3.224017813721394621e+00
7.884150577510876445e+00 -3.203111060990580850e+00
7.964601093607927673e+00 -3.200012061014671616e+00
8.045051609704977125e+00 -3.188121974720232288e+00
8.125502125802025688e+00 -3.189115054399902505e+00
8.205952641899076028e+00 -3.212458901539380740e+00
8.286403157996124591e+00 -3.224113114946318692e+00
8.366853674093176707e+00 -3.236255452279517719e+00
8.447304190190225270e+00 -3.243964563357000230e+00
8.527754706287275610e+00 -3.239821474088086184e+00
8.608205222384324173e+00 -3.214173047867845856e+00
8.688655738481374513e+00 -3.203703674181634042e+00
8.769106254578423076e+00 -3.215229653828623135e+00
8.849556770675475192e+00 -3.234477036387700455e+00
8.930007286772523756e+00 -3.236756584512299195e+00
9.010457802869574095e+00 -3.239643056913108055e+00
9.090908318966622659e+00 -3.255263783521344489e+00
9.171358835063672998e+00 -3.251487162422625143e+00
9.251809351160723338e+00 -3.231458776550317324e+00
9.332259867257773678e+00 -3.230009748951554904e+00
9.412710383354822241e+00 -3.240431396134430653e+00
9.493160899451872581e+00 -3.249012097475286964e+00
9.573611415548921144e+00 -3.260688156428280138e+00
9.654061931645971484e+00 -3.285348666133047324e+00
9.734512447743021823e+00 -3.299111363990825385e+00
9.814962963840072163e+00 -3.293291088576633996e+00
9.895413479937120727e+00 -3.291552919655927667e+00
9.975863996034171066e+00 -3.288535720584228716e+00
1.005631451213121963e+01 -3.297609194030512114e+00
1.013676502822827175e+01 -3.326287189646853992e+00
1.021721554432532031e+01 -3.318018390271191276e+00
1.029766606042237065e+01 -3.294296183833246072e+00
