0.000000000000000000e+00 -1.549019599857431873e-01
8.045051609704977069e-02 -2.019315826121104995e-01
1.609010321940995414e-01 -5.529014242186315320e-01
2.413515482911492982e-01 -1.402247855639878305e+00
3.218020643881990828e-01 -1.706676452383258713e+00
4.022525804852488118e-01 -2.239816815473917977e+00
4.827030965822985964e-01 -2.585184380995765530e+00
5.631536126793483810e-01 -2.687589776725421764e+00
6.436041287763981655e-01 -2.939105848991180547e+00
7.240546448734478391e-01 -3.174426393702780569e+00
8.045051609704976237e-01 -3.320669912141817726e+00
8.849556770675472972e-01 -3.495816117234660680e+00
9.654061931645971928e-01 -3.590992025093776352e+00
1.045856709261647088e+00 -3.618640838833731888e+00
1.126307225358696762e+00 -3.651903755463130619e+00
1.206757741455746435e+00 -3.604531723049094971e+00
1.287208257552796331e+00 -3.517588003622644344e+00
1.367658773649846005e+00 -3.508643611420473984e+00
1.448109289746895678e+00 -3.554228574617864567e+00
1.528559805843945352e+00 -3.585418502872404378e+00
1.609010321940995247e+00 -3.532629740304972898e+00
1.689460838038045143e+00 -3.397434387372864961e+00
1.769911354135094594e+00 -3.348566824425438071e+00
1.850361870232144490e+00 -3.289631034355448680e+00
1.930812386329194386e+00 -3.212970413453928753e+00
2.011262902426244281e+00 -3.151701497437109367e+00
2.091713418523294177e+00 -3.131833996545677401e+00
2.172163934620343628e+00 -3.155492567675183935e+00
2.252614450717393524e+00 -3.162069005951094081e+00
2.333064966814443419e+00 -3.135760604646788963e+00
2.413515482911492871e+00 -3.108056157660596952e+00
2.493965999008542767e+00 -3.120865208283206016e+00
2.574416515105592662e+00 -3.130123675783551995e+00
2.654867031202642558e+00 -3.177318338570011225e+00
2.735317547299692009e+00 -3.217299339021075344e+00
2.815768063396741905e+00 -3.202598553937919590e+00
2.896218579493791356e+00 -3.167449974495359477e+00
2.976669095590841252e+00 -3.130661221313108644e+00
3.057119611687890703e+00 -3.126793886855644189e+00
3.137570127784940599e+00 -3.117409073959569898e+00
3.218020643881990495e+00 -3.088016363090537730e+00
3.298471159979039946e+00 -3.069813710778223292e+00
3.378921676076090286e+00 -3.086973834448497378e+00
3.459372192173139737e+00 -3.101190116926722862e+00
3.539822708270189189e+00 -3.091768159676934413e+00
3.620273224367239528e+00 -3.131206330915065283e+00
3.700723740464288980e+00 -3.156491741094773040e+00
3.781174256561339320e+00 -3.122822635402306091e+00
3.861624772658388771e+00 -3.081587393291409516e+00
3.942075288755438223e+00 -3.072271906772407579e+00
4.022525804852488562e+00 -3.090797172769038870e+00
4.102976320949538014e+00 -3.122646522655636137e+00
4.183426837046588354e+00 -3.112767996976073537e+00
4.263877353143637805e+00 -3.079101526558638113e+00
4.344327869240687257e+00 -3.057708576598858752e+00
4.424778385337737596e+00 -3.066676970401227997e+00
4.505228901434787048e+00 -3.075919937137649551e+00
4.585679417531836499e+00 -3.074707490798483267e+00
4.666129933628886839e+00 -3.053379251210018186e+00
4.746580449725936290e+00 -3.058162870357795882e+00
4.827030965822985742e+00 -3.111184953813924903e+00
4.907481481920036082e+00 -3.175426947428888536e+00
4.987931998017085533e+00 -3.165287571590047921e+00
5.068382514114135873e+00 -3.141900661425181429e+00
5.148833030211185324e+00 -3.146351352641612031e+00
5.229283546308234776e+00 -3.129932384513677057e+00
5.309734062405285115e+00 -3.102866047610756350e+00
5.390184578502334567e+00 -3.090857329080852534e+00
5.470635094599384018e+00 -3.110186426356164713e+00
5.551085610696433470e+00 -3.135312410644885084e+00
5.631536126793483810e+00 -3.143147672181614283e+00
5.711986642890533261e+00 -3.130678542756982985e+00
5.792437158987582713e+00 -3.123441145804742636e+00
5.872887675084633052e+00 -3.106963599404417575e+00
5.953338191181682504e+00 -3.076090213426073472e+00
6.033788707278731955e+00 -3.076091460543955325e+00
6.114239223375781407e+00 -3.105584650239909816e+00
6.194689739472831747e+00 -3.143409829599133065e+00
6.275140255569881198e+00 -3.194788580934879274e+00
6.355590771666931538e+00 -3.243663209810532244e+00
6.436041287763980989e+00 -3.256848307220594485e+00
6.516491803861030441e+00 -3.238486894892165235e+00
6.596942319958079892e+00 -3.224660371740013076e+00
6.677392836055131120e+00 -3.208871378561201304e+00
6.757843352152180572e+00 -3.176460869566819500e+00
6.838293868249230023e+00 -3.166267447634279808e+00
6.918744384346279475e+00 -3.184586507406232947e+00
6.999194900443328926e+00 -3.209903182119434817e+00
7.079645416540378378e+00 -3.215922239557156281e+00
7.160095932637429605e+00 -3.197711624834304711e+00
7.240546448734479057e+00 -3.175199971699089296e+00
7.320996964831528508e+00 -3.183196215752996494e+00
7.401447480928577960e+00 -3.196356314160006651e+00
7.481897997025627411e+00 -3.200245537043549415e+00
7.562348513122678639e+00 -3.189459076857105391e+00
7.642799029219728091e+00 -3.189792029003161833e+00
7.723249545316777542e+00 -3.186673428506704653e+00
7.803700061413826994e+00 -3.177429435520862988e+00
7.884150577510876445e+00 -3.188470494587573256e+00
7.964601093607927673e+00 -3.214785430564977897e+00
8.045051609704977125e+00 -3.244507151566777381e+00
8.125502125802025688e+00 -3.245197023447043527e+00
8.205952641899076028e+00 -3.244372907803145356e+00
8.286403157996124591e+00 -3.260928790023629009e+00
8.366853674093176707e+00 -3.258729929109441148e+00
8.447304190190225270e+00 -3.239620260658522266e+00
8.527754706287275610e+00 -3.242680001904626685e+00
8.608205222384324173e+00 -3.254441617603644143e+00
8.688655738481374513e+00 -3.260318879328151898e+00
8.769106254578423076e+00 -3.274305306740569854e+00
8.849556770675475192e+00 -3.282644560197911954e+00
8.930007286772523756e+00 -3.308329164798634370e+00
9.010457802869574095e+00 -3.306590021424209436e+00
9.090908318966622659e+00 -3.285780926146210312e+00
9.171358835063672998e+00 -3.276798712667007063e+00
9.251809351160723338e+00 -3.298110485008339143e+00
9.332259867257773678e+00 -3.301844925879997561e+00
9.412710383354822241e+00 -3.308763888405475750e+00
9.493160899451872581e+00 -3.313535676325260582e+00
9.573611415548921144e+00 -3.308083011984831234e+00
9.654061931645971484e+00 -3.297335100712811329e+00
9.734512447743021823e+00 -3.286662555388434992e+00
9.814962963840072163e+00 -3.289090925987864455e+00
9.895413479937120727e+00 -3.313362824956674668e+00
9.975863996034171066e+00 -3.327330643550104661e+00
1.005631451213121963e+01 -3.337596886401805740e+00
1.013676502822827175e+01 -3.356871779677514489e+00
1.021721554432532031e+01 -3.357273539766146175e+00
1.029766606042237065e+01 -3.360240540491856276e+00
