0.000000000000000000e+00 -1.549019599857431873e-01
8.045051609704977069e-02 -1.967357353002286702e-01
1.609010321940995414e-01 -5.290668033553687088e-01
2.413515482911492982e-01 -1.324983578837747755e+00
3.218020643881990828e-01 -1.808812276069425407e+00
4.022525804852488118e-01 -2.275394355472816432e+00
4.827030965822985964e-01 -2.735355908792029389e+00
5.631536126793483810e-01 -3.005650668464459052e+00
6.436041287763981655e-01 -3.207714096852917418e+00
7.240546448734478391e-01 -3.337520905872562782e+00
8.045051609704976237e-01 -3.463608986624139519e+00
8.849556770675472972e-01 -3.531410044388345604e+00
9.654061931645971928e-01 -3.570016617633954947e+00
1.045856709261647088e+00 -3.534281504239854321e+00
1.126307225358696762e+00 -3.487796689830598318e+00
1.206757741455746435e+00 -3.477478176868158855e+00
1.287208257552796331e+00 -3.503327492964897427e+00
1.367658773649846005e+00 -3.519948659767806021e+00
1.448109289746895678e+00 -3.484465446460018434e+00
1.528559805843945352e+00 -3.390536186234602845e+00
1.609010321940995247e+00 -3.307402289916662852e+00
1.689460838038045143e+00 -3.249630530736590917e+00
1.769911354135094594e+00 -3.225452082568272427e+00
1.850361870232144490e+00 -3.168095556620098563e+00
1.930812386329194386e+00 -3.099647762156453101e+00
2.011262902426244281e+00 -3.047764475453277555e+00
2.091713418523294177e+00 -3.006510195129733720e+00
2.172163934620343628e+00 -3.018906596405104281e+00
2.252614450717393524e+00 -3.054626930321610256e+00
2.333064966814443419e+00 -3.070007721416331492e+00
2.413515482911492871e+00 -3.055625037613260098e+00
2.493965999008542767e+00 -3.031226088218459402e+00
2.574416515105592662e+00 -3.021404954253666286e+00
2.654867031202642558e+00 -3.048225398690476151e+00
2.735317547299692009e+00 -3.098823803947783784e+00
2.815768063396741905e+00 -3.125882982563378043e+00
2.896218579493791356e+00 -3.119358426671236639e+00
2.976669095590841252e+00 -3.121036783821258709e+00
3.057119611687890703e+00 -3.141168967487290242e+00
3.137570127784940599e+00 -3.129418658753325033e+00
3.218020643881990495e+00 -3.124102149212604651e+00
3.298471159979039946e+00 -3.150945592254962957e+00
3.378921676076090286e+00 -3.175309202995918234e+00
3.459372192173139737e+00 -3.158211545283539312e+00
3.539822708270189189e+00 -3.109585207041243304e+00
3.620273224367239528e+00 -3.084392014569790064e+00
3.700723740464288980e+00 -3.082804429146173142e+00
3.781174256561339320e+00 -3.094442852081243700e+00
3.861624772658388771e+00 -3.122762657014819698e+00
3.942075288755438223e+00 -3.139545756357785322e+00
4.022525804852488562e+00 -3.151735650034031888e+00
4.102976320949538014e+00 -3.166628926035109703e+00
4.183426837046588354e+00 -3.144267909562164398e+00
4.263877353143637805e+00 -3.129139545466182337e+00
4.344327869240687257e+00 -3.143734675902658982e+00
4.424778385337737596e+00 -3.182802981114259300e+00
4.505228901434787048e+00 -3.222182788754039962e+00
4.585679417531836499e+00 -3.224636164673078120e+00
4.666129933628886839e+00 -3.232089040204270791e+00
4.746580449725936290e+00 -3.187845012570876158e+00
4.827030965822985742e+00 -3.143180527450162298e+00
4.907481481920036082e+00 -3.113566152927887742e+00
4.987931998017085533e+00 -3.137827907289617801e+00
5.068382514114135873e+00 -3.167118529943885097e+00
5.148833030211185324e+00 -3.172370150011886381e+00
5.229283546308234776e+00 -3.149991710546388823e+00
5.309734062405285115e+00 -3.159207680078421010e+00
5.390184578502334567e+00 -3.174678469512969503e+00
5.470635094599384018e+00 -3.188451648945585859e+00
5.551085610696433470e+00 -3.164798633168544040e+00
5.631536126793483810e+00 -3.130880937124028041e+00
5.711986642890533261e+00 -3.123087859276213241e+00
5.792437158987582713e+00 -3.143748793504558492e+00
5.872887675084633052e+00 -3.173626459572899794e+00
5.953338191181682504e+00 -3.173332901780748116e+00
6.033788707278731955e+00 -3.154881109106581150e+00
6.114239223375781407e+00 -3.145307292535766130e+00
6.194689739472831747e+00 -3.150498619608727680e+00
6.275140255569881198e+00 -3.165322391808708336e+00
6.355590771666931538e+00 -3.198723466071761390e+00
6.436041287763980989e+00 -3.204082742937449879e+00
6.516491803861030441e+00 -3.216713478856982888e+00
6.596942319958079892e+00 -3.233694331424008528e+00
6.677392836055131120e+00 -3.236191116301153414e+00
6.757843352152180572e+00 -3.222952471157467080e+00
6.838293868249230023e+00 -3.214677725182907952e+00
6.918744384346279475e+00 -3.205648537054369474e+00
6.999194900443328926e+00 -3.185639741322383589e+00
7.079645416540378378e+00 -3.161403010010456427e+00
7.160095932637429605e+00 -3.133200243514110639e+00
7.240546448734479057e+00 -3.144204572499255335e+00
7.320996964831528508e+00 -3.181312129144728829e+00
7.401447480928577960e+00 -3.194383063569335324e+00
7.481897997025627411e+00 -3.186962619858410228e+00
7.562348513122678639e+00 -3.167227986924983085e+00
7.642799029219728091e+00 -3.169207018030826273e+00
7.723249545316777542e+00 -3.179472954751753733e+00
7.803700061413826994e+00 -3.181128751729949133e+00
7.884150577510876445e+00 -3.165877194637999548e+00
7.964601093607927673e+00 -3.156781578596235427e+00
8.045051609704977125e+00 -3.173424470926064167e+00
8.125502125802025688e+00 -3.180452005459188936e+00
8.205952641899076028e+00 -3.195725314478230050e+00
8.286403157996124591e+00 -3.226817182696861241e+00
8.366853674093176707e+00 -3.250843024944442217e+00
8.447304190190225270e+00 -3.271104488792342835e+00
8.527754706287275610e+00 -3.242528851306384574e+00
8.608205222384324173e+00 -3.215578376809340888e+00
8.688655738481374513e+00 -3.222245198413830725e+00
8.769106254578423076e+00 -3.242810750507445494e+00
8.849556770675475192e+00 -3.248377504040458330e+00
8.930007286772523756e+00 -3.248668545063960966e+00
9.010457802869574095e+00 -3.253637785779772251e+00
9.090908318966622659e+00 -3.247374566292240861e+00
9.171358835063672998e+00 -3.242719559046050914e+00
9.251809351160723338e+00 -3.236494366574156789e+00
9.332259867257773678e+00 -3.244593675528049559e+00
9.412710383354822241e+00 -3.276126071806263251e+00
9.493160899451872581e+00 -3.279334678367423983e+00
9.573611415548921144e+00 -3.275866224469706545e+00
9.654061931645971484e+00 -3.290648308242708708e+00
9.734512447743021823e+00 -3.305823413163206936e+00
9.814962963840072163e+00 -3.290064267970454814e+00
9.895413479937120727e+00 -3.281168460547489563e+00
9.975863996034171066e+00 -3.296177623060494888e+00
1.005631451213121963e+01 -3.307597734625926655e+00
1.013676502822827175e+01 -3.313916727108449312e+00
1.021721554432532031e+01 -3.319873379458864626e+00
1.029766606042237065e+01 -3.315315577394464253e+00
