0.000000000000000000e+00 -1.549019599857431873e-01
8.045051609704977069e-02 -1.783821213166964792e-01
1.609010321940995414e-01 -4.367672826738984160e-01
2.413515482911492982e-01 -1.036747012711201732e+00
3.218020643881990828e-01 -1.388228298836329255e+00
4.022525804852488118e-01 -1.811387443548969634e+00
4.827030965822985964e-01 -2.315313079054592826e+00
5.631536126793483810e-01 -2.737828730238036634e+00
6.436041287763981655e-01 -2.906360221976532987e+00
7.240546448734478391e-01 -3.076543099197877051e+00
8.045051609704976237e-01 -3.229793300723667659e+00
8.849556770675472972e-01 -3.356128661606955443e+00
9.654061931645971928e-01 -3.446932539275325169e+00
1.045856709261647088e+00 -3.471004879674568500e+00
1.126307225358696762e+00 -3.436189399574728132e+00
1.206757741455746435e+00 -3.400621102060090717e+00
1.287208257552796331e+00 -3.395525417821378955e+00
1.367658773649846005e+00 -3.440751311303455129e+00
1.448109289746895678e+00 -3.482065883756136682e+00
1.528559805843945352e+00 -3.497965088757914565e+00
1.609010321940995247e+00 -3.464830631759703294e+00
1.689460838038045143e+00 -3.361747782304366439e+00
1.769911354135094594e+00 -3.275902380191185070e+00
1.850361870232144490e+00 -3.186688917897618545e+00
1.930812386329194386e+00 -3.117293977803907712e+00
2.011262902426244281e+00 -3.101210995725725006e+00
2.091713418523294177e+00 -3.105548752633410015e+00
2.172163934620343628e+00 -3.085920360830040732e+00
2.252614450717393524e+00 -3.044990142140413969e+00
2.333064966814443419e+00 -3.032111082149466785e+00
2.413515482911492871e+00 -3.040723735839522046e+00
2.493965999008542767e+00 -3.048532529746430964e+00
2.574416515105592662e+00 -3.050102467613692525e+00
2.654867031202642558e+00 -3.081094081132997875e+00
2.735317547299692009e+00 -3.098356718105492291e+00
2.815768063396741905e+00 -3.092038030650144709e+00
2.896218579493791356e+00 -3.094272161876088667e+00
2.976669095590841252e+00 -3.071766460055408654e+00
3.057119611687890703e+00 -3.056885848612795442e+00
3.137570127784940599e+00 -3.105710760344479127e+00
3.218020643881990495e+00 -3.167405740869820185e+00
3.298471159979039946e+00 -3.196935660022983683e+00
3.378921676076090286e+00 -3.194172660015925036e+00
3.459372192173139737e+00 -3.205885532015110062e+00
3.539822708270189189e+00 -3.209731892491777483e+00
3.620273224367239528e+00 -3.197728306420962063e+00
3.700723740464288980e+00 -3.172032829948070010e+00
3.781174256561339320e+00 -3.163717260988375912e+00
3.861624772658388771e+00 -3.201385809373550551e+00
3.942075288755438223e+00 -3.229458895819334430e+00
4.022525804852488562e+00 -3.210073072322023879e+00
4.102976320949538014e+00 -3.177003525735685230e+00
4.183426837046588354e+00 -3.169544054944547717e+00
4.263877353143637805e+00 -3.205289551934337844e+00
4.344327869240687257e+00 -3.226158751349409215e+00
4.424778385337737596e+00 -3.193009143283585427e+00
4.505228901434787048e+00 -3.153544081469226601e+00
4.585679417531836499e+00 -3.135594639227533342e+00
4.666129933628886839e+00 -3.149463571351707625e+00
4.746580449725936290e+00 -3.146824406173867494e+00
4.827030965822985742e+00 -3.142074785762623890e+00
4.907481481920036082e+00 -3.173394720818920600e+00
4.987931998017085533e+00 -3.198260819949300782e+00
5.068382514114135873e+00 -3.186347054681055724e+00
5.148833030211185324e+00 -3.147627540901115406e+00
5.229283546308234776e+00 -3.105772384479565495e+00
5.309734062405285115e+00 -3.069289823833213138e+00
5.390184578502334567e+00 -3.050219912573978398e+00
5.470635094599384018e+00 -3.047048544187315411e+00
5.551085610696433470e+00 -3.086126193750034830e+00
5.631536126793483810e+00 -3.134890814891464927e+00
5.711986642890533261e+00 -3.176208009623223916e+00
5.792437158987582713e+00 -3.215052912027347887e+00
5.872887675084633052e+00 -3.234230991088773877e+00
5.953338191181682504e+00 -3.237415461225024327e+00
6.033788707278731955e+00 -3.218714240097089174e+00
6.114239223375781407e+00 -3.178509031603172108e+00
6.194689739472831747e+00 -3.133913024137386483e+00
6.275140255569881198e+00 -3.118522071779274984e+00
6.355590771666931538e+00 -3.128193006561073020e+00
6.436041287763980989e+00 -3.142913105238687610e+00
6.516491803861030441e+00 -3.161189924366650139e+00
6.596942319958079892e+00 -3.163875761414691290e+00
6.677392836055131120e+00 -3.157699789228653131e+00
6.757843352152180572e+00 -3.143267022385602072e+00
6.838293868249230023e+00 -3.148053517652821487e+00
6.918744384346279475e+00 -3.148294977244556758e+00
6.999194900443328926e+00 -3.166809451598298963e+00
7.079645416540378378e+00 -3.197066381791795475e+00
7.160095932637429605e+00 -3.205662639355243648e+00
7.240546448734479057e+00 -3.190796827480181452e+00
7.320996964831528508e+00 -3.195952917546438954e+00
7.401447480928577960e+00 -3.204761121831349868e+00
7.481897997025627411e+00 -3.219600142842369284e+00
7.562348513122678639e+00 -3.218108937308301609e+00
7.642799029219728091e+00 -3.247099684458324642e+00
7.723249545316777542e+00 -3.270343213357092438e+00
7.803700061413826994e+00 -3.258665469093078748e+00
7.884150577510876445e+00 -3.221087022770511954e+00
7.964601093607927673e+00 -3.193540795418588374e+00
8.045051609704977125e+00 -3.182011862022827486e+00
8.125502125802025688e+00 -3.183706127893085380e+00
8.205952641899076028e+00 -3.194254019421192137e+00
8.286403157996124591e+00 -3.231104027220930597e+00
8.366853674093176707e+00 -3.264180245934552804e+00
8.447304190190225270e+00 -3.255219211632823129e+00
8.527754706287275610e+00 -3.196996209272174649e+00
8.608205222384324173e+00 -3.185495071314701665e+00
8.688655738481374513e+00 -3.211721587238849374e+00
8.769106254578423076e+00 -3.227797624704758839e+00
8.849556770675475192e+00 -3.238151857754692386e+00
8.930007286772523756e+00 -3.246256430509685487e+00
9.010457802869574095e+00 -3.239449223850402237e+00
9.090908318966622659e+00 -3.222353652643608068e+00
9.171358835063672998e+00 -3.258146245303691568e+00
9.251809351160723338e+00 -3.312628085453485305e+00
9.332259867257773678e+00 -3.322789222309955992e+00
9.412710383354822241e+00 -3.291092460175352397e+00
9.493160899451872581e+00 -3.266900298057187069e+00
9.573611415548921144e+00 -3.270138757225759640e+00
9.654061931645971484e+00 -3.285179912316575024e+00
9.734512447743021823e+00 -3.300123100489722461e+00
9.814962963840072163e+00 -3.318506062507609489e+00
9.895413479937120727e+00 -3.317399300306955290e+00
9.975863996034171066e+00 -3.313036116263929465e+00
1.005631451213121963e+01 -3.308713252759650558e+00
1.013676502822827175e+01 -3.302847855124155796e+00
1.021721554432532031e+01 -3.303761098261694951e+00
1.029766606042237065e+01 -3.305437037917091203e+00
