0.000000000000000000e+00 -1.549019599857431873e-01
8.045051609704977069e-02 -2.073708729862989986e-01
1.609010321940995414e-01 -6.219147987349740170e-01
2.413515482911492982e-01 -1.693669468682621027e+00
3.218020643881990828e-01 -2.131040781103363368e+00
4.022525804852488118e-01 -2.367394562029692562e+00
4.827030965822985964e-01 -2.542285446487565714e+00
5.631536126793483810e-01 -2.761810082569675195e+00
6.436041287763981655e-01 -2.960769434441994807e+00
7.240546448734478391e-01 -3.147879181812959448e+00
8.045051609704976237e-01 -3.377180661587770416e+00
8.849556770675472972e-01 -3.555885945047096097e+00
9.654061931645971928e-01 -3.623380820121202106e+00
1.045856709261647088e+00 -3.638801405607675843e+00
1.126307225358696762e+00 -3.611524609193642821e+00
1.206757741455746435e+00 -3.520677644231867465e+00
1.287208257552796331e+00 -3.430369555797004200e+00
1.367658773649846005e+00 -3.383907076796556446e+00
1.448109289746895678e+00 -3.370343929376796943e+00
1.528559805843945352e+00 -3.346528814422060183e+00
1.609010321940995247e+00 -3.269887959471635241e+00
1.689460838038045143e+00 -3.208953033429002843e+00
1.769911354135094594e+00 -3.213273826936192901e+00
1.850361870232144490e+00 -3.226270086662192060e+00
1.930812386329194386e+00 -3.204233684983301078e+00
2.011262902426244281e+00 -3.130569826143182688e+00
2.091713418523294177e+00 -3.033999746147476806e+00
2.172163934620343628e+00 -2.942944070161968018e+00
2.252614450717393524e+00 -2.965656901214455576e+00
2.333064966814443419e+00 -3.046263063138554994e+00
2.413515482911492871e+00 -3.090494511239471720e+00
2.493965999008542767e+00 -3.132783659248595143e+00
2.574416515105592662e+00 -3.216088091666655657e+00
2.654867031202642558e+00 -3.221170077781212893e+00
2.735317547299692009e+00 -3.145054455303815999e+00
2.815768063396741905e+00 -3.098236286031891940e+00
2.896218579493791356e+00 -3.128618204372291434e+00
2.976669095590841252e+00 -3.144482858161731453e+00
3.057119611687890703e+00 -3.123673032896640667e+00
3.137570127784940599e+00 -3.100384602971526071e+00
3.218020643881990495e+00 -3.052247840275731150e+00
3.298471159979039946e+00 -3.055878609427022496e+00
3.378921676076090286e+00 -3.086860401109016827e+00
3.459372192173139737e+00 -3.127273048830265800e+00
3.539822708270189189e+00 -3.169607098677666102e+00
3.620273224367239528e+00 -3.189362475173631140e+00
3.700723740464288980e+00 -3.192915807603860845e+00
3.781174256561339320e+00 -3.175279212198539813e+00
3.861624772658388771e+00 -3.173705419780811887e+00
3.942075288755438223e+00 -3.154631258974723629e+00
4.022525804852488562e+00 -3.144187577716285542e+00
4.102976320949538014e+00 -3.152205058063868304e+00
4.183426837046588354e+00 -3.159329476522727109e+00
4.263877353143637805e+00 -3.166504227551511175e+00
4.344327869240687257e+00 -3.166082306603889673e+00
4.424778385337737596e+00 -3.146467921430294634e+00
4.505228901434787048e+00 -3.123072039400680566e+00
4.585679417531836499e+00 -3.101908665456004410e+00
4.666129933628886839e+00 -3.124219688365221348e+00
4.746580449725936290e+00 -3.165079314698474366e+00
4.827030965822985742e+00 -3.195592425315127549e+00
4.907481481920036082e+00 -3.152438783523667798e+00
4.987931998017085533e+00 -3.112458202415839370e+00
5.068382514114135873e+00 -3.097274696055086096e+00
5.148833030211185324e+00 -3.098223922199950575e+00
5.229283546308234776e+00 -3.102037593869969356e+00
5.309734062405285115e+00 -3.135467158477263094e+00
5.390184578502334567e+00 -3.144038991944893002e+00
5.470635094599384018e+00 -3.149971282990353671e+00
5.551085610696433470e+00 -3.138370313540111756e+00
5.631536126793483810e+00 -3.134115377976126826e+00
5.711986642890533261e+00 -3.172575086588679039e+00
5.792437158987582713e+00 -3.222415415002015671e+00
5.872887675084633052e+00 -3.225079649649411184e+00
5.953338191181682504e+00 -3.192097203941375305e+00
6.033788707278731955e+00 -3.160716422440325246e+00
6.114239223375781407e+00 -3.139877336036664524e+00
6.194689739472831747e+00 -3.150410567514815963e+00
6.275140255569881198e+00 -3.175119570156888837e+00
6.355590771666931538e+00 -3.180745092084513281e+00
6.436041287763980989e+00 -3.164192211256223963e+00
6.516491803861030441e+00 -3.160859418469321280e+00
6.596942319958079892e+00 -3.187532988367946185e+00
6.677392836055131120e+00 -3.213865399153461144e+00
6.757843352152180572e+00 -3.215088139377261456e+00
6.838293868249230023e+00 -3.192802768711927364e+00
6.918744384346279475e+00 -3.175310923724904200e+00
6.999194900443328926e+00 -3.168974288433753728e+00
7.079645416540378378e+00 -3.188427301457978480e+00
7.160095932637429605e+00 -3.194188524034535792e+00
7.240546448734479057e+00 -3.188278909510445569e+00
7.320996964831528508e+00 -3.172539417867494382e+00
7.401447480928577960e+00 -3.184757824230697754e+00
7.481897997025627411e+00 -3.199250598310837912e+00
7.562348513122678639e+00 -3.207478836311513870e+00
7.642799029219728091e+00 -3.213195622004287433e+00
7.723249545316777542e+00 -3.209117630726797010e+00
7.803700061413826994e+00 -3.212812113334214459e+00
7.884150577510876445e+00 -3.239410427254894032e+00
7.964601093607927673e+00 -3.229300558629446094e+00
8.045051609704977125e+00 -3.220049631457324146e+00
8.125502125802025688e+00 -3.240783233642063443e+00
8.205952641899076028e+00 -3.265904980886171316e+00
8.286403157996124591e+00 -3.261575937149987503e+00
8.366853674093176707e+00 -3.242642331524383970e+00
8.447304190190225270e+00 -3.251117946832130734e+00
8.527754706287275610e+00 -3.257023797269877452e+00
8.608205222384324173e+00 -3.247873998956144259e+00
8.688655738481374513e+00 -3.241853061486069443e+00
8.769106254578423076e+00 -3.254068163872828379e+00
8.849556770675475192e+00 -3.265054918915741844e+00
8.930007286772523756e+00 -3.288848335091393071e+00
9.010457802869574095e+00 -3.292888092857209958e+00
9.090908318966622659e+00 -3.284369686909075270e+00
9.171358835063672998e+00 -3.280516052753844392e+00
9.251809351160723338e+00 -3.277265472812814995e+00
9.332259867257773678e+00 -3.240882782516615546e+00
9.412710383354822241e+00 -3.226231646542813358e+00
9.493160899451872581e+00 -3.253712126891365131e+00
9.573611415548921144e+00 -3.283040195062641775e+00
9.654061931645971484e+00 -3.255193914769050956e+00
9.734512447743021823e+00 -3.260191163893083388e+00
9.814962963840072163e+00 -3.295734691726126542e+00
9.895413479937120727e+00 -3.313172079926978153e+00
9.975863996034171066e+00 -3.334018011418464322e+00
1.005631451213121963e+01 -3.356326863639030211e+00
1.013676502822827175e+01 -3.344601657030189301e+00
1.021721554432532031e+01 -3.321888753754253631e+00
1.029766606042237065e+01 -3.307978128670777895e+00
