0.000000000000000000e+00 -1.549019599857431873e-01
8.045051609704977069e-02 -1.946255062631195576e-01
1.609010321940995414e-01 -5.099810951031652495e-01
2.413515482911492982e-01 -1.246553531387547764e+00
3.218020643881990828e-01 -1.856748024893414506e+00
4.022525804852488118e-01 -2.670416623905666587e+00
4.827030965822985964e-01 -3.355685815908800329e+00
5.631536126793483810e-01 -3.351081781594990705e+00
6.436041287763981655e-01 -3.371795239294903546e+00
7.240546448734478391e-01 -3.521589668883736923e+00
8.045051609704976237e-01 -3.721237927286201508e+00
8.849556770675472972e-01 -3.852717332196414990e+00
9.654061931645971928e-01 -3.843866770751051654e+00
1.045856709261647088e+00 -3.819876583111821766e+00
1.126307225358696762e+00 -3.871082791705481085e+00
1.206757741455746435e+00 -3.922987540751404101e+00
1.287208257552796331e+00 -3.933909464015953539e+00
1.367658773649846005e+00 -3.872122159090674920e+00
1.448109289746895678e+00 -3.773468191209609746e+00
1.528559805843945352e+00 -3.732198853248483772e+00
1.609010321940995247e+00 -3.711615973409546854e+00
1.689460838038045143e+00 -3.630125824224436748e+00
1.769911354135094594e+00 -3.523734257530827918e+00
1.850361870232144490e+00 -3.476635661642007769e+00
1.930812386329194386e+00 -3.438485304836422785e+00
2.011262902426244281e+00 -3.393767958085672998e+00
2.091713418523294177e+00 -3.318579557279214942e+00
2.172163934620343628e+00 -3.249073345442394789e+00
2.252614450717393524e+00 -3.245767648884123169e+00
2.333064966814443419e+00 -3.279632076305338373e+00
2.413515482911492871e+00 -3.316754614191004702e+00
2.493965999008542767e+00 -3.306300846335717747e+00
2.574416515105592662e+00 -3.266583215290188136e+00
2.654867031202642558e+00 -3.275932340149834587e+00
2.735317547299692009e+00 -3.323018024968134476e+00
2.815768063396741905e+00 -3.350605414780701174e+00
2.896218579493791356e+00 -3.351558539902679712e+00
2.976669095590841252e+00 -3.340311802868505708e+00
3.057119611687890703e+00 -3.321881212703468034e+00
3.137570127784940599e+00 -3.267226153429068081e+00
3.218020643881990495e+00 -3.233419257988567441e+00
3.298471159979039946e+00 -3.267306069204756191e+00
3.378921676076090286e+00 -3.300924777308631874e+00
3.459372192173139737e+00 -3.334224657025156358e+00
3.539822708270189189e+00 -3.352321303292181920e+00
3.620273224367239528e+00 -3.344474303544832772e+00
3.700723740464288980e+00 -3.314953795733838859e+00
3.781174256561339320e+00 -3.311681546045542657e+00
3.861624772658388771e+00 -3.341568083425795255e+00
3.942075288755438223e+00 -3.329126271568124462e+00
4.022525804852488562e+00 -3.312594302356502762e+00
4.102976320949538014e+00 -3.318907327927148376e+00
4.183426837046588354e+00 -3.308705455595622347e+00
4.263877353143637805e+00 -3.266288749912638512e+00
4.344327869240687257e+00 -3.245018145978878277e+00
4.424778385337737596e+00 -3.287367849848201740e+00
4.505228901434787048e+00 -3.358844394844688441e+00
4.585679417531836499e+00 -3.395158319997414242e+00
4.666129933628886839e+00 -3.390408435268909670e+00
4.746580449725936290e+00 -3.360006674767626489e+00
4.827030965822985742e+00 -3.327755056349765095e+00
4.907481481920036082e+00 -3.308736795769276373e+00
4.987931998017085533e+00 -3.305450544391036249e+00
5.068382514114135873e+00 -3.327212451289475847e+00
5.148833030211185324e+00 -3.359494894099608331e+00
5.229283546308234776e+00 -3.348400350156504501e+00
5.309734062405285115e+00 -3.320854040760936599e+00
5.390184578502334567e+00 -3.322222976758397728e+00
5.470635094599384018e+00 -3.337640127893253261e+00
5.551085610696433470e+00 -3.341812616662670710e+00
5.631536126793483810e+00 -3.348369639997054392e+00
5.711986642890533261e+00 -3.348365802467948793e+00
5.792437158987582713e+00 -3.354135138334067623e+00
5.872887675084633052e+00 -3.378801195449984363e+00
5.953338191181682504e+00 -3.398853336903842504e+00
6.033788707278731955e+00 -3.382815706500717834e+00
6.114239223375781407e+00 -3.358995745543472466e+00
6.194689739472831747e+00 -3.377845014851001082e+00
6.275140255569881198e+00 -3.392807672216893167e+00
6.355590771666931538e+00 -3.377674195981690719e+00
6.436041287763980989e+00 -3.339510786474745974e+00
6.516491803861030441e+00 -3.344616818442778694e+00
6.596942319958079892e+00 -3.365558258473128728e+00
6.677392836055131120e+00 -3.397780693545611630e+00
6.757843352152180572e+00 -3.401254503974282084e+00
6.838293868249230023e+00 -3.398684199084473612e+00
6.918744384346279475e+00 -3.411974654513539207e+00
6.999194900443328926e+00 -3.419561565113559798e+00
7.079645416540378378e+00 -3.405813302610009696e+00
7.160095932637429605e+00 -3.399729311416883171e+00
7.240546448734479057e+00 -3.408294281901088851e+00
7.320996964831528508e+00 -3.422987006985140912e+00
7.401447480928577960e+00 -3.432446614120461259e+00
7.481897997025627411e+00 -3.420336524081895924e+00
7.562348513122678639e+00 -3.424264667339325108e+00
7.642799029219728091e+00 -3.428689490662003791e+00
7.723249545316777542e+00 -3.426845726193205710e+00
7.803700061413826994e+00 -3.438155744865214469e+00
7.884150577510876445e+00 -3.456721603268195775e+00
7.964601093607927673e+00 -3.465838310068836137e+00
8.045051609704977125e+00 -3.454530484947763824e+00
8.125502125802025688e+00 -3.464560625589661935e+00
8.205952641899076028e+00 -3.482227336323809652e+00
8.286403157996124591e+00 -3.484744741970604576e+00
8.366853674093176707e+00 -3.465731148793385064e+00
8.447304190190225270e+00 -3.449810030922610515e+00
8.527754706287275610e+00 -3.461192563943292555e+00
8.608205222384324173e+00 -3.472621476202771174e+00
8.688655738481374513e+00 -3.449843357237561303e+00
8.769106254578423076e+00 -3.428834232944172999e+00
8.849556770675475192e+00 -3.426764261047908100e+00
8.930007286772523756e+00 -3.434438705846848183e+00
9.010457802869574095e+00 -3.442357653605991441e+00
9.090908318966622659e+00 -3.440171891935064785e+00
9.171358835063672998e+00 -3.434325909248487907e+00
9.251809351160723338e+00 -3.440850743207357620e+00
9.332259867257773678e+00 -3.439411260639186008e+00
9.412710383354822241e+00 -3.442676024462286488e+00
9.493160899451872581e+00 -3.476022907584522592e+00
9.573611415548921144e+00 -3.472467300000565249e+00
9.654061931645971484e+00 -3.450539464315633520e+00
9.734512447743021823e+00 -3.458896107582192680e+00
9.814962963840072163e+00 -3.486006800742627920e+00
9.895413479937120727e+00 -3.488369795208135837e+00
9.975863996034171066e+00 -3.487530133954360512e+00
1.005631451213121963e+01 -3.488377370134704947e+00
1.013676502822827175e+01 -3.486727792325632347e+00
1.021721554432532031e+01 -3.498886359509663091e+00
1.029766606042237065e+01 -3.516703133585959318e+00
