0.000000000000000000e+00 -1.549019599857431873e-01
8.045051609704977069e-02 -1.809484703028224895e-01
1.609010321940995414e-01 -4.602304024817854278e-01
2.413515482911492982e-01 -1.079773223180336306e+00
3.218020643881990828e-01 -1.614040323864640358e+00
4.022525804852488118e-01 -2.250798182067673014e+00
4.827030965822985964e-01 -3.022737111128137588e+00
5.631536126793483810e-01 -3.211262468336134823e+00
6.436041287763981655e-01 -3.347261612823090093e+00
7.240546448734478391e-01 -3.560609923103585039e+00
8.045051609704976237e-01 -3.741236238050495988e+00
8.849556770675472972e-01 -3.846601131266057738e+00
9.654061931645971928e-01 -3.859451038221339392e+00
1.045856709261647088e+00 -3.835683953883306518e+00
1.126307225358696762e+00 -3.821134437572035747e+00
1.206757741455746435e+00 -3.851724552975873017e+00
1.287208257552796331e+00 -3.876351053959526727e+00
1.367658773649846005e+00 -3.895556522534981081e+00
1.448109289746895678e+00 -3.947805044369807170e+00
1.528559805843945352e+00 -3.929100586443181164e+00
1.609010321940995247e+00 -3.866897370880490570e+00
1.689460838038045143e+00 -3.809494011738424835e+00
1.769911354135094594e+00 -3.737657855341582902e+00
1.850361870232144490e+00 -3.652101187833426632e+00
1.930812386329194386e+00 -3.545835559430125628e+00
2.011262902426244281e+00 -3.414174629235684932e+00
2.091713418523294177e+00 -3.356385419307138740e+00
2.172163934620343628e+00 -3.351204825272586341e+00
2.252614450717393524e+00 -3.351669638435664123e+00
2.333064966814443419e+00 -3.319488684749527518e+00
2.413515482911492871e+00 -3.279451249156826620e+00
2.493965999008542767e+00 -3.273726686175561174e+00
2.574416515105592662e+00 -3.288353734741429779e+00
2.654867031202642558e+00 -3.325990527719912215e+00
2.735317547299692009e+00 -3.382797414410272374e+00
2.815768063396741905e+00 -3.403888304839509882e+00
2.896218579493791356e+00 -3.363632906916728338e+00
2.976669095590841252e+00 -3.326535853406702437e+00
3.057119611687890703e+00 -3.337105385214276243e+00
3.137570127784940599e+00 -3.410565918541837771e+00
3.218020643881990495e+00 -3.421811848521215893e+00
3.298471159979039946e+00 -3.390310599204160447e+00
3.378921676076090286e+00 -3.369349493806852447e+00
3.459372192173139737e+00 -3.372198210760807058e+00
3.539822708270189189e+00 -3.369552983529515267e+00
3.620273224367239528e+00 -3.344657901844568570e+00
3.700723740464288980e+00 -3.301404242178107573e+00
3.781174256561339320e+00 -3.266234344212806562e+00
3.861624772658388771e+00 -3.302089894216092336e+00
3.942075288755438223e+00 -3.331572022061144445e+00
4.022525804852488562e+00 -3.330998156448569336e+00
4.102976320949538014e+00 -3.337899707469084376e+00
4.183426837046588354e+00 -3.333165902251861379e+00
4.263877353143637805e+00 -3.347946198300345788e+00
4.344327869240687257e+00 -3.355912087481598860e+00
4.424778385337737596e+00 -3.335185360902131801e+00
4.505228901434787048e+00 -3.332402816896065101e+00
4.585679417531836499e+00 -3.349064532039502051e+00
4.666129933628886839e+00 -3.335376740849764765e+00
4.746580449725936290e+00 -3.303969690460687225e+00
4.827030965822985742e+00 -3.287149766937106588e+00
4.907481481920036082e+00 -3.307598601067174293e+00
4.987931998017085533e+00 -3.342205582493617655e+00
5.068382514114135873e+00 -3.371233927671299924e+00
5.148833030211185324e+00 -3.384819458261182135e+00
5.229283546308234776e+00 -3.384808323352947124e+00
5.309734062405285115e+00 -3.340847148719482185e+00
5.390184578502334567e+00 -3.309150908435650074e+00
5.470635094599384018e+00 -3.311233904160557184e+00
5.551085610696433470e+00 -3.324041191619726110e+00
5.631536126793483810e+00 -3.334568631155916840e+00
5.711986642890533261e+00 -3.365036305449868870e+00
5.792437158987582713e+00 -3.370757387862246546e+00
5.872887675084633052e+00 -3.337686400076720350e+00
5.953338191181682504e+00 -3.322052344306136273e+00
6.033788707278731955e+00 -3.335731775235408314e+00
6.114239223375781407e+00 -3.367384536194508282e+00
6.194689739472831747e+00 -3.398504911922266114e+00
6.275140255569881198e+00 -3.419443534646625871e+00
6.355590771666931538e+00 -3.446055543897337259e+00
6.436041287763980989e+00 -3.444781240320399451e+00
6.516491803861030441e+00 -3.418432834804947529e+00
6.596942319958079892e+00 -3.399850698202872223e+00
6.677392836055131120e+00 -3.382500312428567302e+00
6.757843352152180572e+00 -3.363353852436774538e+00
6.838293868249230023e+00 -3.364330833161519596e+00
6.918744384346279475e+00 -3.392412662841263415e+00
6.999194900443328926e+00 -3.438153548015812522e+00
7.079645416540378378e+00 -3.454016724945854655e+00
7.160095932637429605e+00 -3.403836887197106531e+00
7.240546448734479057e+00 -3.323476436321159078e+00
7.320996964831528508e+00 -3.317223688912211532e+00
7.401447480928577960e+00 -3.350148412379707619e+00
7.481897997025627411e+00 -3.382693340455495967e+00
7.562348513122678639e+00 -3.429479855710243275e+00
7.642799029219728091e+00 -3.454194555613799178e+00
7.723249545316777542e+00 -3.466750587657778215e+00
7.803700061413826994e+00 -3.481081792207365577e+00
7.884150577510876445e+00 -3.486929489929067039e+00
7.964601093607927673e+00 -3.482069971554576870e+00
8.045051609704977125e+00 -3.492779357613227997e+00
8.125502125802025688e+00 -3.514710724650455642e+00
8.205952641899076028e+00 -3.508346086669882791e+00
8.286403157996124591e+00 -3.478819333778309986e+00
8.366853674093176707e+00 -3.461983177505565834e+00
8.447304190190225270e+00 -3.463455387340362179e+00
8.527754706287275610e+00 -3.445059062906583147e+00
8.608205222384324173e+00 -3.441416223823879683e+00
8.688655738481374513e+00 -3.452378986292516050e+00
8.769106254578423076e+00 -3.474811604238926765e+00
8.849556770675475192e+00 -3.466476276216464925e+00
8.930007286772523756e+00 -3.455353495338931769e+00
9.010457802869574095e+00 -3.441103930361678831e+00
9.090908318966622659e+00 -3.454987070457441689e+00
9.171358835063672998e+00 -3.473340736947822638e+00
9.251809351160723338e+00 -3.477549256692629154e+00
9.332259867257773678e+00 -3.448225489433512259e+00
9.412710383354822241e+00 -3.430066569055740811e+00
9.493160899451872581e+00 -3.431419614351084668e+00
9.573611415548921144e+00 -3.468188544446596300e+00
9.654061931645971484e+00 -3.523772418973926790e+00
9.734512447743021823e+00 -3.565145260105497815e+00
9.814962963840072163e+00 -3.562095478958700046e+00
9.895413479937120727e+00 -3.530089997677190450e+00
9.975863996034171066e+00 -3.496506050511357433e+00
1.005631451213121963e+01 -3.479051611176908754e+00
1.013676502822827175e+01 -3.463007204675995876e+00
1.021721554432532031e+01 -3.461416153621005076e+00
1.029766606042237065e+01 -3.474613156595190322e+00
