0.000000000000000000e+00 -1.549019599857431873e-01
8.045051609704977069e-02 -1.876439210543878744e-01
1.609010321940995414e-01 -4.855726798773716268e-01
2.413515482911492982e-01 -1.156605625548928540e+00
3.218020643881990828e-01 -1.787338040271265527e+00
4.022525804852488118e-01 -2.643625921850332183e+00
4.827030965822985964e-01 -3.256699885756680235e+00
5.631536126793483810e-01 -3.230349178673320054e+00
6.436041287763981655e-01 -3.406308380923450230e+00
7.240546448734478391e-01 -3.667106143294020182e+00
8.045051609704976237e-01 -3.843529107390998512e+00
8.849556770675472972e-01 -3.946526425343544364e+00
9.654061931645971928e-01 -4.025147138985185613e+00
1.045856709261647088e+00 -4.058774119866531471e+00
1.126307225358696762e+00 -3.943115251818993361e+00
1.206757741455746435e+00 -3.860437855222802916e+00
1.287208257552796331e+00 -3.866415289210837436e+00
1.367658773649846005e+00 -3.904519752754350481e+00
1.448109289746895678e+00 -3.872812635514577106e+00
1.528559805843945352e+00 -3.808931195522140989e+00
1.609010321940995247e+00 -3.755528503588124067e+00
1.689460838038045143e+00 -3.617899070229592340e+00
1.769911354135094594e+00 -3.498628763348298865e+00
1.850361870232144490e+00 -3.458131650147231451e+00
1.930812386329194386e+00 -3.418334363662331121e+00
2.011262902426244281e+00 -3.393824553576899827e+00
2.091713418523294177e+00 -3.343382570791278319e+00
2.172163934620343628e+00 -3.335780094364812154e+00
2.252614450717393524e+00 -3.303902901279174742e+00
2.333064966814443419e+00 -3.275068762409369949e+00
2.413515482911492871e+00 -3.286906821903939235e+00
2.493965999008542767e+00 -3.326790075638945243e+00
2.574416515105592662e+00 -3.360011366591138415e+00
2.654867031202642558e+00 -3.345103401475734817e+00
2.735317547299692009e+00 -3.339392904674556295e+00
2.815768063396741905e+00 -3.375178529257077731e+00
2.896218579493791356e+00 -3.448551176158780152e+00
2.976669095590841252e+00 -3.487917044207691664e+00
3.057119611687890703e+00 -3.443342454269675112e+00
3.137570127784940599e+00 -3.382429493134216258e+00
3.218020643881990495e+00 -3.334973641745766493e+00
3.298471159979039946e+00 -3.300733411356615132e+00
3.378921676076090286e+00 -3.321372236368464570e+00
3.459372192173139737e+00 -3.324416009471575784e+00
3.539822708270189189e+00 -3.344579712742814070e+00
3.620273224367239528e+00 -3.342144283340922950e+00
3.700723740464288980e+00 -3.320779629041849645e+00
3.781174256561339320e+00 -3.316737855551314507e+00
3.861624772658388771e+00 -3.313235530565127984e+00
3.942075288755438223e+00 -3.312799178033856151e+00
4.022525804852488562e+00 -3.316008890691167110e+00
4.102976320949538014e+00 -3.351287846502497114e+00
4.183426837046588354e+00 -3.330361194601995756e+00
4.263877353143637805e+00 -3.301699621434871279e+00
4.344327869240687257e+00 -3.275989622433275184e+00
4.424778385337737596e+00 -3.272082596861455972e+00
4.505228901434787048e+00 -3.319281212838800954e+00
4.585679417531836499e+00 -3.367579675424499541e+00
4.666129933628886839e+00 -3.368305117631319678e+00
4.746580449725936290e+00 -3.368153584316367244e+00
4.827030965822985742e+00 -3.366250160523300394e+00
4.907481481920036082e+00 -3.330011320033556377e+00
4.987931998017085533e+00 -3.278051167976153479e+00
5.068382514114135873e+00 -3.253556350115104578e+00
5.148833030211185324e+00 -3.264391729174897616e+00
5.229283546308234776e+00 -3.303318513517217614e+00
5.309734062405285115e+00 -3.339658270621992830e+00
5.390184578502334567e+00 -3.373553352855672038e+00
5.470635094599384018e+00 -3.390783382440509808e+00
5.551085610696433470e+00 -3.380459430073483595e+00
5.631536126793483810e+00 -3.372377009636009504e+00
5.711986642890533261e+00 -3.387271579943878841e+00
5.792437158987582713e+00 -3.397318967119215660e+00
5.872887675084633052e+00 -3.373086947809387670e+00
5.953338191181682504e+00 -3.336682035550420533e+00
6.033788707278731955e+00 -3.331753239526947574e+00
6.114239223375781407e+00 -3.346579164418595820e+00
6.194689739472831747e+00 -3.369174080465757726e+00
6.275140255569881198e+00 -3.341084030283401063e+00
6.355590771666931538e+00 -3.295564330905514705e+00
6.436041287763980989e+00 -3.293341349665463991e+00
6.516491803861030441e+00 -3.328854048381109987e+00
6.596942319958079892e+00 -3.363013765492239404e+00
6.677392836055131120e+00 -3.381223785000339710e+00
6.757843352152180572e+00 -3.386630599160703525e+00
6.838293868249230023e+00 -3.364966519687926816e+00
6.918744384346279475e+00 -3.349031928793190449e+00
6.999194900443328926e+00 -3.355408505626645610e+00
7.079645416540378378e+00 -3.374616582311370294e+00
7.160095932637429605e+00 -3.387973147131230878e+00
7.240546448734479057e+00 -3.380166576082415997e+00
7.320996964831528508e+00 -3.382706845867560208e+00
7.401447480928577960e+00 -3.434098951237464448e+00
7.481897997025627411e+00 -3.482277363699552097e+00
7.562348513122678639e+00 -3.482602574523207650e+00
7.642799029219728091e+00 -3.454528556954830076e+00
7.723249545316777542e+00 -3.439632001513643011e+00
7.803700061413826994e+00 -3.426642303982972315e+00
7.884150577510876445e+00 -3.420615809266189800e+00
7.964601093607927673e+00 -3.403736671258653423e+00
8.045051609704977125e+00 -3.426238586884694737e+00
8.125502125802025688e+00 -3.483756622531252400e+00
8.205952641899076028e+00 -3.487285685296115378e+00
8.286403157996124591e+00 -3.449047936985423668e+00
8.366853674093176707e+00 -3.420865287470920002e+00
8.447304190190225270e+00 -3.420381318854944563e+00
8.527754706287275610e+00 -3.428254755826372069e+00
8.608205222384324173e+00 -3.443844678069799325e+00
8.688655738481374513e+00 -3.475921833752518175e+00
8.769106254578423076e+00 -3.475322320854959735e+00
8.849556770675475192e+00 -3.476882176190494889e+00
8.930007286772523756e+00 -3.486693811657266551e+00
9.010457802869574095e+00 -3.486898923782225879e+00
9.090908318966622659e+00 -3.445067049297803052e+00
9.171358835063672998e+00 -3.411724010215850811e+00
9.251809351160723338e+00 -3.416794794909562949e+00
9.332259867257773678e+00 -3.435443087782781291e+00
9.412710383354822241e+00 -3.449129255111757608e+00
9.493160899451872581e+00 -3.480983620239909815e+00
9.573611415548921144e+00 -3.501247794720024675e+00
9.654061931645971484e+00 -3.511103559793414153e+00
9.734512447743021823e+00 -3.517236104551075826e+00
9.814962963840072163e+00 -3.508422292448054147e+00
9.895413479937120727e+00 -3.506859255697354349e+00
9.975863996034171066e+00 -3.534732618073137544e+00
1.005631451213121963e+01 -3.561964777858118936e+00
1.013676502822827175e+01 -3.572082151039166931e+00
1.021721554432532031e+01 -3.552764313849117173e+00
1.029766606042237065e+01 -3.529466337154763877e+00
