0.000000000000000000e+00 -1.549019599857431873e-01
8.045051609704977069e-02 -1.968239542892468441e-01
1.609010321940995414e-01 -4.946140585422917346e-01
2.413515482911492982e-01 -1.159283843033184880e+00
3.218020643881990828e-01 -1.780036338801306295e+00
4.022525804852488118e-01 -2.889271789900139442e+00
4.827030965822985964e-01 -3.304497024113751014e+00
5.631536126793483810e-01 -3.167392924273332966e+00
6.436041287763981655e-01 -3.308473185558816976e+00
7.240546448734478391e-01 -3.663543963254731750e+00
8.045051609704976237e-01 -3.919345552607447214e+00
8.849556770675472972e-01 -3.983535545724083970e+00
9.654061931645971928e-01 -4.056146564098503049e+00
1.045856709261647088e+00 -4.109303709863092458e+00
1.126307225358696762e+00 -4.020114834002623816e+00
1.206757741455746435e+00 -3.851911019290019222e+00
1.287208257552796331e+00 -3.747416485970700428e+00
1.367658773649846005e+00 -3.751418974369843173e+00
1.448109289746895678e+00 -3.794871884612348367e+00
1.528559805843945352e+00 -3.834960302250431496e+00
1.609010321940995247e+00 -3.808670569551274809e+00
1.689460838038045143e+00 -3.665385048584459682e+00
1.769911354135094594e+00 -3.538815964360382704e+00
1.850361870232144490e+00 -3.445399480937100911e+00
1.930812386329194386e+00 -3.351062945690890693e+00
2.011262902426244281e+00 -3.292198912395754462e+00
2.091713418523294177e+00 -3.288718440718173763e+00
2.172163934620343628e+00 -3.315351216793832823e+00
2.252614450717393524e+00 -3.331432937694106311e+00
2.333064966814443419e+00 -3.322708069576957524e+00
2.413515482911492871e+00 -3.300988486920826137e+00
2.493965999008542767e+00 -3.271064689857478669e+00
2.574416515105592662e+00 -3.266620437353769280e+00
2.654867031202642558e+00 -3.300498821079325129e+00
2.735317547299692009e+00 -3.377183660011260358e+00
2.815768063396741905e+00 -3.412262522723114699e+00
2.896218579493791356e+00 -3.418119688572605064e+00
2.976669095590841252e+00 -3.379217314350690948e+00
3.057119611687890703e+00 -3.348467888134023962e+00
3.137570127784940599e+00 -3.306542907064802694e+00
3.218020643881990495e+00 -3.277375277685651955e+00
3.298471159979039946e+00 -3.298733145597275929e+00
3.378921676076090286e+00 -3.369447015482999408e+00
3.459372192173139737e+00 -3.421817584947488999e+00
3.539822708270189189e+00 -3.389072480442111512e+00
3.620273224367239528e+00 -3.344751988970863454e+00
3.700723740464288980e+00 -3.329590840436633670e+00
3.781174256561339320e+00 -3.349410837398273166e+00
3.861624772658388771e+00 -3.368956915327437240e+00
3.942075288755438223e+00 -3.354198968990889096e+00
4.022525804852488562e+00 -3.328130635469439547e+00
4.102976320949538014e+00 -3.320864896894104579e+00
4.183426837046588354e+00 -3.340715648745729904e+00
4.263877353143637805e+00 -3.380950828086088489e+00
4.344327869240687257e+00 -3.406845294294458704e+00
4.424778385337737596e+00 -3.384165012566082709e+00
4.505228901434787048e+00 -3.354498575435240326e+00
4.585679417531836499e+00 -3.362776146729359095e+00
4.666129933628886839e+00 -3.384060927243037753e+00
4.746580449725936290e+00 -3.415000745569076290e+00
4.827030965822985742e+00 -3.456753211395721781e+00
4.907481481920036082e+00 -3.481342012676196251e+00
4.987931998017085533e+00 -3.458871605796027815e+00
5.068382514114135873e+00 -3.446393704646545153e+00
5.148833030211185324e+00 -3.424425348972108818e+00
5.229283546308234776e+00 -3.409651794837034622e+00
5.309734062405285115e+00 -3.389912015469703555e+00
5.390184578502334567e+00 -3.363685552822620384e+00
5.470635094599384018e+00 -3.358195757148975780e+00
5.551085610696433470e+00 -3.373973306214621548e+00
5.631536126793483810e+00 -3.405750408346395197e+00
5.711986642890533261e+00 -3.370331605929685281e+00
5.792437158987582713e+00 -3.373470675783921013e+00
5.872887675084633052e+00 -3.381507352257248744e+00
5.953338191181682504e+00 -3.395281318514489666e+00
6.033788707278731955e+00 -3.395248793003549537e+00
6.114239223375781407e+00 -3.388591053500691785e+00
6.194689739472831747e+00 -3.363493757408456464e+00
6.275140255569881198e+00 -3.362263493642674739e+00
6.355590771666931538e+00 -3.380363434774074971e+00
6.436041287763980989e+00 -3.402320278043020174e+00
6.516491803861030441e+00 -3.419767674415921110e+00
6.596942319958079892e+00 -3.454076613856281508e+00
6.677392836055131120e+00 -3.475779073373849837e+00
6.757843352152180572e+00 -3.456153948560924505e+00
6.838293868249230023e+00 -3.424655095054261800e+00
6.918744384346279475e+00 -3.413611970482389069e+00
6.999194900443328926e+00 -3.405936088016340513e+00
7.079645416540378378e+00 -3.409231659916225343e+00
7.160095932637429605e+00 -3.425061032012988615e+00
7.240546448734479057e+00 -3.430707417941779358e+00
7.320996964831528508e+00 -3.418720931418453457e+00
7.401447480928577960e+00 -3.411109938816891507e+00
7.481897997025627411e+00 -3.403594061251136171e+00
7.562348513122678639e+00 -3.425860633750822615e+00
7.642799029219728091e+00 -3.435317673668698557e+00
7.723249545316777542e+00 -3.427024117181569629e+00
7.803700061413826994e+00 -3.417229721466451764e+00
7.884150577510876445e+00 -3.436601794799078569e+00
7.964601093607927673e+00 -3.475337151427378313e+00
8.045051609704977125e+00 -3.465242530488548578e+00
8.125502125802025688e+00 -3.453901292735628736e+00
8.205952641899076028e+00 -3.468125083109667273e+00
8.286403157996124591e+00 -3.477207108254182444e+00
8.366853674093176707e+00 -3.484046751000390962e+00
8.447304190190225270e+00 -3.485024800845431425e+00
8.527754706287275610e+00 -3.472557362067536069e+00
8.608205222384324173e+00 -3.460100968067423288e+00
8.688655738481374513e+00 -3.461210793931357443e+00
8.769106254578423076e+00 -3.484522298397883411e+00
8.849556770675475192e+00 -3.511661162475900877e+00
8.930007286772523756e+00 -3.522489365166921793e+00
9.010457802869574095e+00 -3.501429289856044846e+00
9.090908318966622659e+00 -3.467992606757158480e+00
9.171358835063672998e+00 -3.455947020115246460e+00
9.251809351160723338e+00 -3.480935659482385258e+00
9.332259867257773678e+00 -3.528008703055871997e+00
9.412710383354822241e+00 -3.537391841401836157e+00
9.493160899451872581e+00 -3.532569848798495560e+00
9.573611415548921144e+00 -3.523693159780606710e+00
9.654061931645971484e+00 -3.544362715348835735e+00
9.734512447743021823e+00 -3.542330601763818976e+00
9.814962963840072163e+00 -3.513138947709411486e+00
9.895413479937120727e+00 -3.521564777415036485e+00
9.975863996034171066e+00 -3.547197707732672622e+00
1.005631451213121963e+01 -3.548521646928552986e+00
1.013676502822827175e+01 -3.541253972401404049e+00
1.021721554432532031e+01 -3.562249044751303995e+00
1.029766606042237065e+01 -3.587734899599824612e+00
