0.000000000000000000e+00 -1.549019599857431873e-01
8.045051609704977069e-02 -1.984210704718373242e-01
1.609010321940995414e-01 -5.336033488607649922e-01
2.413515482911492982e-01 -1.251248972470460519e+00
3.218020643881990828e-01 -1.784787267617637951e+00
4.022525804852488118e-01 -2.806815660169474924e+00
4.827030965822985964e-01 -3.115253581562796192e+00
5.631536126793483810e-01 -3.098633233832504441e+00
6.436041287763981655e-01 -3.272573962220279853e+00
7.240546448734478391e-01 -3.624385733237382556e+00
8.045051609704976237e-01 -3.747560379383404694e+00
8.849556770675472972e-01 -3.683090079243822146e+00
9.654061931645971928e-01 -3.735741479899075568e+00
1.045856709261647088e+00 -3.835310845796179535e+00
1.126307225358696762e+00 -3.872439506023253486e+00
1.206757741455746435e+00 -3.852893306756621339e+00
1.287208257552796331e+00 -3.860773288310746842e+00
1.367658773649846005e+00 -3.870373245269989049e+00
1.448109289746895678e+00 -3.834914253594663425e+00
1.528559805843945352e+00 -3.763525404311285794e+00
1.609010321940995247e+00 -3.704940247616626436e+00
1.689460838038045143e+00 -3.674659688101710397e+00
1.769911354135094594e+00 -3.621604811880118291e+00
1.850361870232144490e+00 -3.546913288051323665e+00
1.930812386329194386e+00 -3.520383664170398497e+00
2.011262902426244281e+00 -3.480492239147541245e+00
2.091713418523294177e+00 -3.380056520528938790e+00
2.172163934620343628e+00 -3.330510873353303314e+00
2.252614450717393524e+00 -3.287981693077511203e+00
2.333064966814443419e+00 -3.249038073573828456e+00
2.413515482911492871e+00 -3.228297316434989295e+00
2.493965999008542767e+00 -3.262146359512253735e+00
2.574416515105592662e+00 -3.302707247442431271e+00
2.654867031202642558e+00 -3.366912643455033383e+00
2.735317547299692009e+00 -3.438712965161506485e+00
2.815768063396741905e+00 -3.411287757594021919e+00
2.896218579493791356e+00 -3.337492043966453270e+00
2.976669095590841252e+00 -3.321121939762412101e+00
3.057119611687890703e+00 -3.355671822591041575e+00
3.137570127784940599e+00 -3.384464009236041182e+00
3.218020643881990495e+00 -3.371011502806013471e+00
3.298471159979039946e+00 -3.369860903239882077e+00
3.378921676076090286e+00 -3.374022966062659723e+00
3.459372192173139737e+00 -3.369340165848260238e+00
3.539822708270189189e+00 -3.335774890317563468e+00
3.620273224367239528e+00 -3.304335370818279660e+00
3.700723740464288980e+00 -3.280883846525505465e+00
3.781174256561339320e+00 -3.276391692355119734e+00
3.861624772658388771e+00 -3.313138332050707291e+00
3.942075288755438223e+00 -3.344080452142525139e+00
4.022525804852488562e+00 -3.353153620498608767e+00
4.102976320949538014e+00 -3.349005664597008103e+00
4.183426837046588354e+00 -3.337034664057800359e+00
4.263877353143637805e+00 -3.315196204614990538e+00
4.344327869240687257e+00 -3.318279400651943600e+00
4.424778385337737596e+00 -3.323581564731531657e+00
4.505228901434787048e+00 -3.316126573097863073e+00
4.585679417531836499e+00 -3.330157350862987364e+00
4.666129933628886839e+00 -3.378760218554579531e+00
4.746580449725936290e+00 -3.433552384947718750e+00
4.827030965822985742e+00 -3.400078712401551240e+00
4.907481481920036082e+00 -3.345806764947420131e+00
4.987931998017085533e+00 -3.320536166910777354e+00
5.068382514114135873e+00 -3.358081630430425513e+00
5.148833030211185324e+00 -3.423785370840680020e+00
5.229283546308234776e+00 -3.441403364868563575e+00
5.309734062405285115e+00 -3.411806326900254760e+00
5.390184578502334567e+00 -3.400667065943026035e+00
5.470635094599384018e+00 -3.425691799926287917e+00
5.551085610696433470e+00 -3.435171222497053201e+00
5.631536126793483810e+00 -3.432414145117498538e+00
5.711986642890533261e+00 -3.419940096609656255e+00
5.792437158987582713e+00 -3.405457143649204710e+00
5.872887675084633052e+00 -3.408111496890153802e+00
5.953338191181682504e+00 -3.398742385267501831e+00
6.033788707278731955e+00 -3.383832002597841004e+00
6.114239223375781407e+00 -3.368735181704995529e+00
6.194689739472831747e+00 -3.369708906096998913e+00
6.275140255569881198e+00 -3.410444185352951241e+00
6.355590771666931538e+00 -3.440674951136323045e+00
6.436041287763980989e+00 -3.403594413919696748e+00
6.516491803861030441e+00 -3.385175940556497842e+00
6.596942319958079892e+00 -3.403428345599747384e+00
6.677392836055131120e+00 -3.423319983219980767e+00
6.757843352152180572e+00 -3.471225961205507193e+00
6.838293868249230023e+00 -3.511251599556620473e+00
6.918744384346279475e+00 -3.506227200721110382e+00
6.999194900443328926e+00 -3.500129091981498686e+00
7.079645416540378378e+00 -3.499753266606782098e+00
7.160095932637429605e+00 -3.466093813886950592e+00
7.240546448734479057e+00 -3.425755864886751656e+00
7.320996964831528508e+00 -3.424272031506434999e+00
7.401447480928577960e+00 -3.446194545523274755e+00
7.481897997025627411e+00 -3.452887754255799635e+00
7.562348513122678639e+00 -3.427748102180966594e+00
7.642799029219728091e+00 -3.410751613644440017e+00
7.723249545316777542e+00 -3.409863286495147250e+00
7.803700061413826994e+00 -3.417897855272330254e+00
7.884150577510876445e+00 -3.467350751054717684e+00
7.964601093607927673e+00 -3.515125719153470829e+00
8.045051609704977125e+00 -3.519737801111963105e+00
8.125502125802025688e+00 -3.525668247624650142e+00
8.205952641899076028e+00 -3.508404251814587926e+00
8.286403157996124591e+00 -3.481395374842406909e+00
8.366853674093176707e+00 -3.462177288699789468e+00
8.447304190190225270e+00 -3.475714559908237078e+00
8.527754706287275610e+00 -3.487037419405007999e+00
8.608205222384324173e+00 -3.482950261404178960e+00
8.688655738481374513e+00 -3.488868281213509892e+00
8.769106254578423076e+00 -3.507941101183118970e+00
8.849556770675475192e+00 -3.499750796071934289e+00
8.930007286772523756e+00 -3.494907871094216745e+00
9.010457802869574095e+00 -3.504096565663548990e+00
9.090908318966622659e+00 -3.501227078786118607e+00
9.171358835063672998e+00 -3.500581020781565300e+00
9.251809351160723338e+00 -3.511092948139562075e+00
9.332259867257773678e+00 -3.518779222081041436e+00
9.412710383354822241e+00 -3.524420584376769749e+00
9.493160899451872581e+00 -3.538186351483083580e+00
9.573611415548921144e+00 -3.524954381167844986e+00
9.654061931645971484e+00 -3.520957764851403660e+00
9.734512447743021823e+00 -3.547764821348118325e+00
9.814962963840072163e+00 -3.562601136677729041e+00
9.895413479937120727e+00 -3.545556678779173243e+00
9.975863996034171066e+00 -3.537895088814481781e+00
1.005631451213121963e+01 -3.551970702320474960e+00
1.013676502822827175e+01 -3.583374523734168982e+00
1.021721554432532031e+01 -3.592435546955826453e+00
1.029766606042237065e+01 -3.584283546082270178e+00
