0.000000000000000000e+00 -1.549019599857431873e-01
8.045051609704977069e-02 -2.112471927095966040e-01
1.609010321940995414e-01 -6.329692287385810801e-01
2.413515482911492982e-01 -1.929885530496376456e+00
3.218020643881990828e-01 -2.074257765148875166e+00
4.022525804852488118e-01 -2.436856652764940012e+00
4.827030965822985964e-01 -2.934933271118137288e+00
5.631536126793483810e-01 -3.278764296117726129e+00
6.436041287763981655e-01 -3.549398155033110847e+00
7.240546448734478391e-01 -3.692085686673803213e+00
8.045051609704976237e-01 -3.763729098984017085e+00
8.849556770675472972e-01 -3.825589178021057357e+00
9.654061931645971928e-01 -3.811505150924789476e+00
1.045856709261647088e+00 -3.804205986448307097e+00
1.126307225358696762e+00 -3.785047195668098663e+00
1.206757741455746435e+00 -3.766744480250078908e+00
1.287208257552796331e+00 -3.756457164750728772e+00
1.367658773649846005e+00 -3.719785507438023053e+00
1.448109289746895678e+00 -3.642605391901996725e+00
1.528559805843945352e+00 -3.599294763872295189e+00
1.609010321940995247e+00 -3.594176016243711302e+00
1.689460838038045143e+00 -3.578458552705058526e+00
1.769911354135094594e+00 -3.477516600187333218e+00
1.850361870232144490e+00 -3.406119826424480745e+00
1.930812386329194386e+00 -3.386855664186113835e+00
2.011262902426244281e+00 -3.336543133275024164e+00
2.091713418523294177e+00 -3.296771175378789831e+00
2.172163934620343628e+00 -3.288494611670445433e+00
2.252614450717393524e+00 -3.309439615647180588e+00
2.333064966814443419e+00 -3.301739938117197681e+00
2.413515482911492871e+00 -3.255875905773075729e+00
2.493965999008542767e+00 -3.254516037754840330e+00
2.574416515105592662e+00 -3.295069591599327108e+00
2.654867031202642558e+00 -3.301313740951383746e+00
2.735317547299692009e+00 -3.310664134044512874e+00
2.815768063396741905e+00 -3.356419866509250394e+00
2.896218579493791356e+00 -3.374017721129423997e+00
2.976669095590841252e+00 -3.392118175691768212e+00
3.057119611687890703e+00 -3.432757745023936824e+00
3.137570127784940599e+00 -3.461199953562946963e+00
3.218020643881990495e+00 -3.419515157120722737e+00
3.298471159979039946e+00 -3.361069251083901310e+00
3.378921676076090286e+00 -3.359376249780353874e+00
3.459372192173139737e+00 -3.373261633531719372e+00
3.539822708270189189e+00 -3.364443002201409350e+00
3.620273224367239528e+00 -3.351339838579582953e+00
3.700723740464288980e+00 -3.341007337442066127e+00
3.781174256561339320e+00 -3.328085753302017391e+00
3.861624772658388771e+00 -3.323878522624832854e+00
3.942075288755438223e+00 -3.347757738077116407e+00
4.022525804852488562e+00 -3.389344757653914186e+00
4.102976320949538014e+00 -3.420736547583169695e+00
4.183426837046588354e+00 -3.424098379894568112e+00
4.263877353143637805e+00 -3.429797623994621514e+00
4.344327869240687257e+00 -3.394827345185609246e+00
4.424778385337737596e+00 -3.332614694433684299e+00
4.505228901434787048e+00 -3.314310338143903856e+00
4.585679417531836499e+00 -3.324833324721864436e+00
4.666129933628886839e+00 -3.326703382992234115e+00
4.746580449725936290e+00 -3.347206054804832132e+00
4.827030965822985742e+00 -3.376712935239258861e+00
4.907481481920036082e+00 -3.350558288094195980e+00
4.987931998017085533e+00 -3.299550610361804193e+00
5.068382514114135873e+00 -3.290332830394636865e+00
5.148833030211185324e+00 -3.304473427595425949e+00
5.229283546308234776e+00 -3.311361918471868560e+00
5.309734062405285115e+00 -3.331682339801484982e+00
5.390184578502334567e+00 -3.361763673859960111e+00
5.470635094599384018e+00 -3.374813148741544477e+00
5.551085610696433470e+00 -3.366380630390687134e+00
5.631536126793483810e+00 -3.336451453835881154e+00
5.711986642890533261e+00 -3.332983733642453483e+00
5.792437158987582713e+00 -3.342698122185749021e+00
5.872887675084633052e+00 -3.339198847561529515e+00
5.953338191181682504e+00 -3.334156679208607699e+00
6.033788707278731955e+00 -3.372456223131917508e+00
6.114239223375781407e+00 -3.406902512481158052e+00
6.194689739472831747e+00 -3.422364120514950425e+00
6.275140255569881198e+00 -3.429720659898698898e+00
6.355590771666931538e+00 -3.437974977069520932e+00
6.436041287763980989e+00 -3.429156745907173232e+00
6.516491803861030441e+00 -3.405577929983419239e+00
6.596942319958079892e+00 -3.367949294351033185e+00
6.677392836055131120e+00 -3.364845419609780564e+00
6.757843352152180572e+00 -3.375056702443247403e+00
6.838293868249230023e+00 -3.428893299226259295e+00
6.918744384346279475e+00 -3.453561563590058281e+00
6.999194900443328926e+00 -3.449961809702955406e+00
7.079645416540378378e+00 -3.413959024798038477e+00
7.160095932637429605e+00 -3.426236916993739889e+00
7.240546448734479057e+00 -3.447915506780076633e+00
7.320996964831528508e+00 -3.438157421154594218e+00
7.401447480928577960e+00 -3.432372687851791948e+00
7.481897997025627411e+00 -3.456581607323764516e+00
7.562348513122678639e+00 -3.469876638699701310e+00
7.642799029219728091e+00 -3.457299301412249726e+00
7.723249545316777542e+00 -3.436085344577276768e+00
7.803700061413826994e+00 -3.429774288815391703e+00
7.884150577510876445e+00 -3.432834286526330381e+00
7.964601093607927673e+00 -3.431395672118267903e+00
8.045051609704977125e+00 -3.427143513019830223e+00
8.125502125802025688e+00 -3.422291046874133880e+00
8.205952641899076028e+00 -3.431029544002711873e+00
8.286403157996124591e+00 -3.466079228956346014e+00
8.366853674093176707e+00 -3.497966735791576021e+00
8.447304190190225270e+00 -3.492390043268854161e+00
8.527754706287275610e+00 -3.458127009955627162e+00
8.608205222384324173e+00 -3.444074840682316729e+00
8.688655738481374513e+00 -3.465278237039718157e+00
8.769106254578423076e+00 -3.482288915993962064e+00
8.849556770675475192e+00 -3.469837174882681285e+00
8.930007286772523756e+00 -3.461301639323540069e+00
9.010457802869574095e+00 -3.477127482231102906e+00
9.090908318966622659e+00 -3.501872692238611862e+00
9.171358835063672998e+00 -3.518689766025948629e+00
9.251809351160723338e+00 -3.529616049405290390e+00
9.332259867257773678e+00 -3.529501896445773834e+00
9.412710383354822241e+00 -3.532651263875211445e+00
9.493160899451872581e+00 -3.557787178236526238e+00
9.573611415548921144e+00 -3.561320130008174267e+00
9.654061931645971484e+00 -3.561362306826540536e+00
9.734512447743021823e+00 -3.552992137311896226e+00
9.814962963840072163e+00 -3.533714211064058919e+00
9.895413479937120727e+00 -3.513018668891507712e+00
9.975863996034171066e+00 -3.503589253486970367e+00
1.005631451213121963e+01 -3.508104274718901294e+00
1.013676502822827175e+01 -3.514842700649788654e+00
1.021721554432532031e+01 -3.524846218431675116e+00
1.029766606042237065e+01 -3.535413579616183632e+00
