0.000000000000000000e+00 -1.549019599857431873e-01
8.045051609704977069e-02 -1.921746210790251375e-01
1.609010321940995414e-01 -5.350383145881731917e-01
2.413515482911492982e-01 -1.350334822293810300e+00
3.218020643881990828e-01 -1.777550342783410731e+00
4.022525804852488118e-01 -2.140609562254979892e+00
4.827030965822985964e-01 -2.720383281248652363e+00
5.631536126793483810e-01 -3.169243517197704474e+00
6.436041287763981655e-01 -3.284509909275723061e+00
7.240546448734478391e-01 -3.466999964043509408e+00
8.045051609704976237e-01 -3.655694330775042467e+00
8.849556770675472972e-01 -3.718618770280059493e+00
9.654061931645971928e-01 -3.765342056632638101e+00
1.045856709261647088e+00 -3.784576565984926422e+00
1.126307225358696762e+00 -3.758015115520287441e+00
1.206757741455746435e+00 -3.781156801290629144e+00
1.287208257552796331e+00 -3.828250789767799311e+00
1.367658773649846005e+00 -3.873388486802805453e+00
1.448109289746895678e+00 -3.859819974716000246e+00
1.528559805843945352e+00 -3.800674033367732019e+00
1.609010321940995247e+00 -3.718928991035650000e+00
1.689460838038045143e+00 -3.609138318684985247e+00
1.769911354135094594e+00 -3.504795210021131702e+00
1.850361870232144490e+00 -3.444158169571779560e+00
1.930812386329194386e+00 -3.402527859960965184e+00
2.011262902426244281e+00 -3.365993074032648913e+00
2.091713418523294177e+00 -3.319444314223159775e+00
2.172163934620343628e+00 -3.323559302259571080e+00
2.252614450717393524e+00 -3.342823193184875308e+00
2.333064966814443419e+00 -3.313783075779314746e+00
2.413515482911492871e+00 -3.281023487354711055e+00
2.493965999008542767e+00 -3.281179008835130251e+00
2.574416515105592662e+00 -3.302004983388156401e+00
2.654867031202642558e+00 -3.313803320099103278e+00
2.735317547299692009e+00 -3.339863790920844622e+00
2.815768063396741905e+00 -3.360762834625909523e+00
2.896218579493791356e+00 -3.362537385954902369e+00
2.976669095590841252e+00 -3.335812323698198245e+00
3.057119611687890703e+00 -3.311240875557825980e+00
3.137570127784940599e+00 -3.311713739890150610e+00
3.218020643881990495e+00 -3.334992218254464458e+00
3.298471159979039946e+00 -3.359384768021688839e+00
3.378921676076090286e+00 -3.360611582943370923e+00
3.459372192173139737e+00 -3.312778254359002972e+00
3.539822708270189189e+00 -3.300166782674266219e+00
3.620273224367239528e+00 -3.324662382369343749e+00
3.700723740464288980e+00 -3.323687360191940776e+00
3.781174256561339320e+00 -3.311286047307822944e+00
3.861624772658388771e+00 -3.330761995313688217e+00
3.942075288755438223e+00 -3.358021085955797069e+00
4.022525804852488562e+00 -3.365349453905113197e+00
4.102976320949538014e+00 -3.345505994375839176e+00
4.183426837046588354e+00 -3.317279050489895909e+00
4.263877353143637805e+00 -3.306347790320413260e+00
4.344327869240687257e+00 -3.300018702139010163e+00
4.424778385337737596e+00 -3.334030146006674133e+00
4.505228901434787048e+00 -3.362013439400262982e+00
4.585679417531836499e+00 -3.370294364975717105e+00
4.666129933628886839e+00 -3.369063985505639902e+00
4.746580449725936290e+00 -3.385389039457174842e+00
4.827030965822985742e+00 -3.381811122115601531e+00
4.907481481920036082e+00 -3.352647108925270736e+00
4.987931998017085533e+00 -3.314261780620145981e+00
5.068382514114135873e+00 -3.298513683159044696e+00
5.148833030211185324e+00 -3.302991828649835870e+00
5.229283546308234776e+00 -3.334674198478928542e+00
5.309734062405285115e+00 -3.357959820325932210e+00
5.390184578502334567e+00 -3.352683456172194543e+00
5.470635094599384018e+00 -3.330165863875671928e+00
5.551085610696433470e+00 -3.337442587008946582e+00
5.631536126793483810e+00 -3.377166031291598092e+00
5.711986642890533261e+00 -3.403583393712078298e+00
5.792437158987582713e+00 -3.396845801140062626e+00
5.872887675084633052e+00 -3.384656259969405667e+00
5.953338191181682504e+00 -3.389087309949065041e+00
6.033788707278731955e+00 -3.407885857548764719e+00
6.114239223375781407e+00 -3.409751199003053568e+00
6.194689739472831747e+00 -3.383168826308339039e+00
6.275140255569881198e+00 -3.359816796630731517e+00
6.355590771666931538e+00 -3.357366244448928505e+00
6.436041287763980989e+00 -3.378481638854577973e+00
6.516491803861030441e+00 -3.395344526294865606e+00
6.596942319958079892e+00 -3.368454542548266595e+00
6.677392836055131120e+00 -3.367968172044087272e+00
6.757843352152180572e+00 -3.378151561246085510e+00
6.838293868249230023e+00 -3.401859242094400937e+00
6.918744384346279475e+00 -3.411924312102105006e+00
6.999194900443328926e+00 -3.404872360315374102e+00
7.079645416540378378e+00 -3.390444961728698026e+00
7.160095932637429605e+00 -3.424035114952230785e+00
7.240546448734479057e+00 -3.465638276169569654e+00
7.320996964831528508e+00 -3.482623570132767910e+00
7.401447480928577960e+00 -3.458956965896479829e+00
7.481897997025627411e+00 -3.383781385703254596e+00
7.562348513122678639e+00 -3.326893801304104947e+00
7.642799029219728091e+00 -3.307992485823120443e+00
7.723249545316777542e+00 -3.340277919344383672e+00
7.803700061413826994e+00 -3.393892244289968829e+00
7.884150577510876445e+00 -3.435774543902764044e+00
7.964601093607927673e+00 -3.460983944848807337e+00
8.045051609704977125e+00 -3.454326431087280991e+00
8.125502125802025688e+00 -3.439053007697914666e+00
8.205952641899076028e+00 -3.439323607529481741e+00
8.286403157996124591e+00 -3.449708197254312214e+00
8.366853674093176707e+00 -3.438160230126928063e+00
8.447304190190225270e+00 -3.433735755503578346e+00
8.527754706287275610e+00 -3.445809860467250907e+00
8.608205222384324173e+00 -3.454388230242351643e+00
8.688655738481374513e+00 -3.449933784427807293e+00
8.769106254578423076e+00 -3.433913163965597537e+00
8.849556770675475192e+00 -3.415438273600128305e+00
8.930007286772523756e+00 -3.422007205241222483e+00
9.010457802869574095e+00 -3.436892341845985577e+00
9.090908318966622659e+00 -3.459742951331857608e+00
9.171358835063672998e+00 -3.480962857766892959e+00
9.251809351160723338e+00 -3.482187743528901258e+00
9.332259867257773678e+00 -3.494388122556806309e+00
9.412710383354822241e+00 -3.522067385477080315e+00
9.493160899451872581e+00 -3.528221198204382514e+00
9.573611415548921144e+00 -3.530402497269452766e+00
9.654061931645971484e+00 -3.539589361451016547e+00
9.734512447743021823e+00 -3.539874104854890291e+00
9.814962963840072163e+00 -3.525633790429937964e+00
9.895413479937120727e+00 -3.506516973982262364e+00
9.975863996034171066e+00 -3.496564112225573062e+00
1.005631451213121963e+01 -3.502550669199799405e+00
1.013676502822827175e+01 -3.518287391424306687e+00
1.021721554432532031e+01 -3.526619219361702751e+00
1.029766606042237065e+01 -3.515375532707605277e+00
