0.000000000000000000e+00 -1.549019599857431873e-01
8.045051609704977069e-02 -2.074990632074665831e-01
1.609010321940995414e-01 -6.181789854426227304e-01
2.413515482911492982e-01 -1.725178694159697823e+00
3.218020643881990828e-01 -2.014758775989469619e+00
4.022525804852488118e-01 -2.563698027686266645e+00
4.827030965822985964e-01 -3.071743800018644333e+00
5.631536126793483810e-01 -3.224954611253974424e+00
6.436041287763981655e-01 -3.261535344834693095e+00
7.240546448734478391e-01 -3.279711459852429289e+00
8.045051609704976237e-01 -3.414771429229589206e+00
8.849556770675472972e-01 -3.612431638471371720e+00
9.654061931645971928e-01 -3.728380792191626547e+00
1.045856709261647088e+00 -3.758631233605187028e+00
1.126307225358696762e+00 -3.772250434235472127e+00
1.206757741455746435e+00 -3.822115749627318149e+00
1.287208257552796331e+00 -3.783958102730270667e+00
1.367658773649846005e+00 -3.705938786245676297e+00
1.448109289746895678e+00 -3.681455270129352364e+00
1.528559805843945352e+00 -3.674870112392553789e+00
1.609010321940995247e+00 -3.629133872288846874e+00
1.689460838038045143e+00 -3.586762316927546657e+00
1.769911354135094594e+00 -3.526593744867930980e+00
1.850361870232144490e+00 -3.410907849342801779e+00
1.930812386329194386e+00 -3.372166213526180734e+00
2.011262902426244281e+00 -3.390385993106099782e+00
2.091713418523294177e+00 -3.390497088706901252e+00
2.172163934620343628e+00 -3.331503787181544496e+00
2.252614450717393524e+00 -3.280507968770091765e+00
2.333064966814443419e+00 -3.286781955668752531e+00
2.413515482911492871e+00 -3.303618896951034944e+00
2.493965999008542767e+00 -3.287327918757612988e+00
2.574416515105592662e+00 -3.331795501052603026e+00
2.654867031202642558e+00 -3.389058384101540700e+00
2.735317547299692009e+00 -3.370454212571250885e+00
2.815768063396741905e+00 -3.346773113280471890e+00
2.896218579493791356e+00 -3.335705075747053883e+00
2.976669095590841252e+00 -3.359149339488022967e+00
3.057119611687890703e+00 -3.416188663293653782e+00
3.137570127784940599e+00 -3.426135705650008578e+00
3.218020643881990495e+00 -3.376761830379686025e+00
3.298471159979039946e+00 -3.359741144433307181e+00
3.378921676076090286e+00 -3.325557893386962505e+00
3.459372192173139737e+00 -3.301800255653154714e+00
3.539822708270189189e+00 -3.280843400439040103e+00
3.620273224367239528e+00 -3.254628604621121024e+00
3.700723740464288980e+00 -3.260360931250215977e+00
3.781174256561339320e+00 -3.291741241451114242e+00
3.861624772658388771e+00 -3.282675707014877986e+00
3.942075288755438223e+00 -3.300198454930446612e+00
4.022525804852488562e+00 -3.287697013389465628e+00
4.102976320949538014e+00 -3.293795545178091810e+00
4.183426837046588354e+00 -3.335507723235050292e+00
4.263877353143637805e+00 -3.359194479614070694e+00
4.344327869240687257e+00 -3.365290639073581946e+00
4.424778385337737596e+00 -3.353974391265072796e+00
4.505228901434787048e+00 -3.342330082558380155e+00
4.585679417531836499e+00 -3.377136046574527484e+00
4.666129933628886839e+00 -3.382084483502200367e+00
4.746580449725936290e+00 -3.343041205566505969e+00
4.827030965822985742e+00 -3.331614410462099052e+00
4.907481481920036082e+00 -3.325146417808159782e+00
4.987931998017085533e+00 -3.320808183642736111e+00
5.068382514114135873e+00 -3.333644900460804195e+00
5.148833030211185324e+00 -3.370813949009475952e+00
5.229283546308234776e+00 -3.388508940157739513e+00
5.309734062405285115e+00 -3.412411629613235853e+00
5.390184578502334567e+00 -3.423069883648758083e+00
5.470635094599384018e+00 -3.433702240132083805e+00
5.551085610696433470e+00 -3.428284442276358313e+00
5.631536126793483810e+00 -3.442531240370637402e+00
5.711986642890533261e+00 -3.445832842745149449e+00
5.792437158987582713e+00 -3.437373661656866197e+00
5.872887675084633052e+00 -3.385743543663026767e+00
5.953338191181682504e+00 -3.344927968953865349e+00
6.033788707278731955e+00 -3.317436361449339177e+00
6.114239223375781407e+00 -3.326165869554813970e+00
6.194689739472831747e+00 -3.353417615806045138e+00
6.275140255569881198e+00 -3.359744642723831554e+00
6.355590771666931538e+00 -3.338198675790917669e+00
6.436041287763980989e+00 -3.359517111746946672e+00
6.516491803861030441e+00 -3.393838804362385719e+00
6.596942319958079892e+00 -3.421619221108358921e+00
6.677392836055131120e+00 -3.422668089666260460e+00
6.757843352152180572e+00 -3.418889830349299608e+00
6.838293868249230023e+00 -3.409012633050163554e+00
6.918744384346279475e+00 -3.431353724422470552e+00
6.999194900443328926e+00 -3.429114969830615589e+00
7.079645416540378378e+00 -3.433047644664915854e+00
7.160095932637429605e+00 -3.457363128924492823e+00
7.240546448734479057e+00 -3.474153306729816926e+00
7.320996964831528508e+00 -3.442044606071028134e+00
7.401447480928577960e+00 -3.427062085091264976e+00
7.481897997025627411e+00 -3.444903903508055532e+00
7.562348513122678639e+00 -3.467259973615331781e+00
7.642799029219728091e+00 -3.455449737575752689e+00
7.723249545316777542e+00 -3.459741922613277954e+00
7.803700061413826994e+00 -3.478442255157532692e+00
7.884150577510876445e+00 -3.485342058445431768e+00
7.964601093607927673e+00 -3.467013677600840893e+00
8.045051609704977125e+00 -3.440099942724287541e+00
8.125502125802025688e+00 -3.407804746890403358e+00
8.205952641899076028e+00 -3.412876255082846200e+00
8.286403157996124591e+00 -3.450799103230535625e+00
8.366853674093176707e+00 -3.478216466896183690e+00
8.447304190190225270e+00 -3.495996512835718661e+00
8.527754706287275610e+00 -3.502098391773428521e+00
8.608205222384324173e+00 -3.467113137970442960e+00
8.688655738481374513e+00 -3.444934794488538454e+00
8.769106254578423076e+00 -3.448868587360697457e+00
8.849556770675475192e+00 -3.455375375564764262e+00
8.930007286772523756e+00 -3.471421581784053245e+00
9.010457802869574095e+00 -3.506288592720360420e+00
9.090908318966622659e+00 -3.539813349289582689e+00
9.171358835063672998e+00 -3.526991416754733599e+00
9.251809351160723338e+00 -3.502204222264247324e+00
9.332259867257773678e+00 -3.488964433091755080e+00
9.412710383354822241e+00 -3.506195444028513020e+00
9.493160899451872581e+00 -3.525619016475212586e+00
9.573611415548921144e+00 -3.527034651424556078e+00
9.654061931645971484e+00 -3.520165240921490302e+00
9.734512447743021823e+00 -3.515922420393888359e+00
9.814962963840072163e+00 -3.505761272918795246e+00
9.895413479937120727e+00 -3.497474857035887563e+00
9.975863996034171066e+00 -3.516451555677555962e+00
1.005631451213121963e+01 -3.545273809899946116e+00
1.013676502822827175e+01 -3.580167844661173771e+00
1.021721554432532031e+01 -3.569266890663212344e+00
1.029766606042237065e+01 -3.533800156365244138e+00
