0.000000000000000000e+00 -1.549019599857431873e-01
8.045051609704977069e-02 -2.099746794464673327e-01
1.609010321940995414e-01 -5.814814554116707335e-01
2.413515482911492982e-01 -1.547709591135761897e+00
3.218020643881990828e-01 -1.958843088567415291e+00
4.022525804852488118e-01 -2.405762474821626640e+00
4.827030965822985964e-01 -2.868216880193195539e+00
5.631536126793483810e-01 -3.223360286540857711e+00
6.436041287763981655e-01 -3.459471850956218564e+00
7.240546448734478391e-01 -3.538655560515175491e+00
8.045051609704976237e-01 -3.572601891497825921e+00
8.849556770675472972e-01 -3.654598910348265672e+00
9.654061931645971928e-01 -3.755316441563058660e+00
1.045856709261647088e+00 -3.758184870018181911e+00
1.126307225358696762e+00 -3.790116140023606750e+00
1.206757741455746435e+00 -3.876288832748736812e+00
1.287208257552796331e+00 -3.937403050113713388e+00
1.367658773649846005e+00 -3.901502259048610366e+00
1.448109289746895678e+00 -3.795319669706969101e+00
1.528559805843945352e+00 -3.669519370053508922e+00
1.609010321940995247e+00 -3.602560726603442731e+00
1.689460838038045143e+00 -3.611437810643459478e+00
1.769911354135094594e+00 -3.566616499719347466e+00
1.850361870232144490e+00 -3.484129560528716585e+00
1.930812386329194386e+00 -3.414906793515415817e+00
2.011262902426244281e+00 -3.377967782050613543e+00
2.091713418523294177e+00 -3.294322262879975316e+00
2.172163934620343628e+00 -3.245801357431654210e+00
2.252614450717393524e+00 -3.264679509188141093e+00
2.333064966814443419e+00 -3.304913381909551529e+00
2.413515482911492871e+00 -3.356161507156411261e+00
2.493965999008542767e+00 -3.364432816258568604e+00
2.574416515105592662e+00 -3.357647330154145848e+00
2.654867031202642558e+00 -3.355090978553704417e+00
2.735317547299692009e+00 -3.355291091967475214e+00
2.815768063396741905e+00 -3.366255003872995477e+00
2.896218579493791356e+00 -3.394008259988355647e+00
2.976669095590841252e+00 -3.393304067381186506e+00
3.057119611687890703e+00 -3.375326041357657125e+00
3.137570127784940599e+00 -3.359351635375336542e+00
3.218020643881990495e+00 -3.369713870331974448e+00
3.298471159979039946e+00 -3.345342436469774583e+00
3.378921676076090286e+00 -3.284751756815987189e+00
3.459372192173139737e+00 -3.261524823187537780e+00
3.539822708270189189e+00 -3.249146917022851966e+00
3.620273224367239528e+00 -3.233622603884889202e+00
3.700723740464288980e+00 -3.240960349645644722e+00
3.781174256561339320e+00 -3.297443978170078172e+00
3.861624772658388771e+00 -3.338158142339354928e+00
3.942075288755438223e+00 -3.325848276231451184e+00
4.022525804852488562e+00 -3.291178351454237205e+00
4.102976320949538014e+00 -3.304297383603751914e+00
4.183426837046588354e+00 -3.332532246485229166e+00
4.263877353143637805e+00 -3.338047383366515852e+00
4.344327869240687257e+00 -3.343988506462129973e+00
4.424778385337737596e+00 -3.355584517594971228e+00
4.505228901434787048e+00 -3.361934177661459966e+00
4.585679417531836499e+00 -3.361938253655149644e+00
4.666129933628886839e+00 -3.367218133754981135e+00
4.746580449725936290e+00 -3.379950765810344482e+00
4.827030965822985742e+00 -3.399136467915297111e+00
4.907481481920036082e+00 -3.431504425374891643e+00
4.987931998017085533e+00 -3.416853811196670865e+00
5.068382514114135873e+00 -3.372104452305454192e+00
5.148833030211185324e+00 -3.344159423820213028e+00
5.229283546308234776e+00 -3.351670323032198695e+00
5.309734062405285115e+00 -3.348219944526748204e+00
5.390184578502334567e+00 -3.349092851734638998e+00
5.470635094599384018e+00 -3.357573398524165587e+00
5.551085610696433470e+00 -3.387656929614339951e+00
5.631536126793483810e+00 -3.429801454839331409e+00
5.711986642890533261e+00 -3.446811651984430291e+00
5.792437158987582713e+00 -3.454914875856412326e+00
5.872887675084633052e+00 -3.452933950219144510e+00
5.953338191181682504e+00 -3.429921650614319084e+00
6.033788707278731955e+00 -3.387880924617238332e+00
6.114239223375781407e+00 -3.388360932756210531e+00
6.194689739472831747e+00 -3.415455275634597054e+00
6.275140255569881198e+00 -3.436967201022148810e+00
6.355590771666931538e+00 -3.439872240209959742e+00
6.436041287763980989e+00 -3.437313851735624759e+00
6.516491803861030441e+00 -3.436356147512992010e+00
6.596942319958079892e+00 -3.425948478586227086e+00
6.677392836055131120e+00 -3.414647823658833126e+00
6.757843352152180572e+00 -3.392073869067262937e+00
6.838293868249230023e+00 -3.361943939099333534e+00
6.918744384346279475e+00 -3.357526456500362411e+00
6.999194900443328926e+00 -3.369777112056322466e+00
7.079645416540378378e+00 -3.391518476227759926e+00
7.160095932637429605e+00 -3.425139505222173142e+00
7.240546448734479057e+00 -3.441881757607255121e+00
7.320996964831528508e+00 -3.433351267826847852e+00
7.401447480928577960e+00 -3.431803423180797008e+00
7.481897997025627411e+00 -3.439077600207759211e+00
7.562348513122678639e+00 -3.424966507652361436e+00
7.642799029219728091e+00 -3.427666557012263748e+00
7.723249545316777542e+00 -3.443523850074484915e+00
7.803700061413826994e+00 -3.466483007673871075e+00
7.884150577510876445e+00 -3.466343498231571729e+00
7.964601093607927673e+00 -3.468095964714980717e+00
8.045051609704977125e+00 -3.461385799975913891e+00
8.125502125802025688e+00 -3.450676009084135742e+00
8.205952641899076028e+00 -3.450149322000088059e+00
8.286403157996124591e+00 -3.469660940387285564e+00
8.366853674093176707e+00 -3.493675016761834673e+00
8.447304190190225270e+00 -3.497037584618602590e+00
8.527754706287275610e+00 -3.464175435727903540e+00
8.608205222384324173e+00 -3.434901688537977282e+00
8.688655738481374513e+00 -3.434221292442967144e+00
8.769106254578423076e+00 -3.447039315675146653e+00
8.849556770675475192e+00 -3.464001566861045767e+00
8.930007286772523756e+00 -3.478190718818662930e+00
9.010457802869574095e+00 -3.475965198315171367e+00
9.090908318966622659e+00 -3.458517384881586221e+00
9.171358835063672998e+00 -3.455619759140664549e+00
9.251809351160723338e+00 -3.477002088669312485e+00
9.332259867257773678e+00 -3.518906632853871841e+00
9.412710383354822241e+00 -3.551379958424829120e+00
9.493160899451872581e+00 -3.541291537661896083e+00
9.573611415548921144e+00 -3.511808226565761526e+00
9.654061931645971484e+00 -3.513128276179593446e+00
9.734512447743021823e+00 -3.523340129470164506e+00
9.814962963840072163e+00 -3.518809557867186744e+00
9.895413479937120727e+00 -3.506780150181969535e+00
9.975863996034171066e+00 -3.526770748394667976e+00
1.005631451213121963e+01 -3.563040766588509989e+00
1.013676502822827175e+01 -3.586248442455713725e+00
1.021721554432532031e+01 -3.550853499286167558e+00
1.029766606042237065e+01 -3.539980478515750928e+00
