0.000000000000000000e+00 -1.549019599857431873e-01
8.045051609704977069e-02 -1.785413516908952725e-01
1.609010321940995414e-01 -3.880500128469593912e-01
2.413515482911492982e-01 -6.949786621994262781e-01
3.218020643881990828e-01 -1.051932482372496702e+00
4.022525804852488118e-01 -1.566040995046258821e+00
4.827030965822985964e-01 -2.220666185181777941e+00
5.631536126793483810e-01 -2.479965838513654486e+00
6.436041287763981655e-01 -2.740262377943233130e+00
7.240546448734478391e-01 -3.028560691977924435e+00
8.045051609704976237e-01 -3.225483460099329847e+00
8.849556770675472972e-01 -3.324355819536001899e+00
9.654061931645971928e-01 -3.381334773530542570e+00
1.045856709261647088e+00 -3.422243247007819011e+00
1.126307225358696762e+00 -3.370754529658027909e+00
1.206757741455746435e+00 -3.323175679116957326e+00
1.287208257552796331e+00 -3.309609002781603859e+00
1.367658773649846005e+00 -3.302079350176493122e+00
1.448109289746895678e+00 -3.370784012130655594e+00
1.528559805843945352e+00 -3.441484654728225401e+00
1.609010321940995247e+00 -3.398053338180364591e+00
1.689460838038045143e+00 -3.374054185086752256e+00
1.769911354135094594e+00 -3.379226133991066749e+00
1.850361870232144490e+00 -3.336614879588065907e+00
1.930812386329194386e+00 -3.262898034814442294e+00
2.011262902426244281e+00 -3.172654222025939053e+00
2.091713418523294177e+00 -3.049383070851281463e+00
2.172163934620343628e+00 -2.985496817990033414e+00
2.252614450717393524e+00 -2.973967530760991185e+00
2.333064966814443419e+00 -2.957630102066763911e+00
2.413515482911492871e+00 -3.001582786658998803e+00
2.493965999008542767e+00 -3.077434040776950486e+00
2.574416515105592662e+00 -3.122809773868640448e+00
2.654867031202642558e+00 -3.123994967638672460e+00
2.735317547299692009e+00 -3.124105304023793384e+00
2.815768063396741905e+00 -3.120711497343800378e+00
2.896218579493791356e+00 -3.107838923249088836e+00
2.976669095590841252e+00 -3.115580593070025550e+00
3.057119611687890703e+00 -3.109186592507710678e+00
3.137570127784940599e+00 -3.121045603284266168e+00
3.218020643881990495e+00 -3.133319073207186722e+00
3.298471159979039946e+00 -3.159136053439650205e+00
3.378921676076090286e+00 -3.191515073207285891e+00
3.459372192173139737e+00 -3.212954899032847145e+00
3.539822708270189189e+00 -3.205486313726774839e+00
3.620273224367239528e+00 -3.182744040118530737e+00
3.700723740464288980e+00 -3.192870971387258283e+00
3.781174256561339320e+00 -3.183571830835129735e+00
3.861624772658388771e+00 -3.143815310954413800e+00
3.942075288755438223e+00 -3.125025060818932943e+00
4.022525804852488562e+00 -3.163444682719801282e+00
4.102976320949538014e+00 -3.202908083952646479e+00
4.183426837046588354e+00 -3.210363247188930735e+00
4.263877353143637805e+00 -3.216954980839952238e+00
4.344327869240687257e+00 -3.235511442757256884e+00
4.424778385337737596e+00 -3.243670939818628085e+00
4.505228901434787048e+00 -3.226019594831190496e+00
4.585679417531836499e+00 -3.200512132046090308e+00
4.666129933628886839e+00 -3.190392942081703431e+00
4.746580449725936290e+00 -3.188847562886886422e+00
4.827030965822985742e+00 -3.172024924782860911e+00
4.907481481920036082e+00 -3.155922946597368828e+00
4.987931998017085533e+00 -3.156145781402191375e+00
5.068382514114135873e+00 -3.153048663766541804e+00
5.148833030211185324e+00 -3.161621059792420585e+00
5.229283546308234776e+00 -3.174503929745856379e+00
5.309734062405285115e+00 -3.173489288510969342e+00
5.390184578502334567e+00 -3.152271874184537470e+00
5.470635094599384018e+00 -3.124272223944869253e+00
5.551085610696433470e+00 -3.100700182233406377e+00
5.631536126793483810e+00 -3.116258739717957749e+00
5.711986642890533261e+00 -3.125692301127773742e+00
5.792437158987582713e+00 -3.124676275532903169e+00
5.872887675084633052e+00 -3.144967880609736532e+00
5.953338191181682504e+00 -3.166335112993444945e+00
6.033788707278731955e+00 -3.161539278284456245e+00
6.114239223375781407e+00 -3.149428008382285427e+00
6.194689739472831747e+00 -3.157073329135093420e+00
6.275140255569881198e+00 -3.161341095756068587e+00
6.355590771666931538e+00 -3.168690205649081992e+00
6.436041287763980989e+00 -3.180762100234452827e+00
6.516491803861030441e+00 -3.184383278853029520e+00
6.596942319958079892e+00 -3.178661675838311051e+00
6.677392836055131120e+00 -3.174132236521599815e+00
6.757843352152180572e+00 -3.193371880644376049e+00
6.838293868249230023e+00 -3.192663040591655399e+00
6.918744384346279475e+00 -3.208901208377862524e+00
6.999194900443328926e+00 -3.247633248219401469e+00
7.079645416540378378e+00 -3.266283626840001286e+00
7.160095932637429605e+00 -3.275842503058012500e+00
7.240546448734479057e+00 -3.257872749499338916e+00
7.320996964831528508e+00 -3.235136716311068916e+00
7.401447480928577960e+00 -3.223636267927945998e+00
7.481897997025627411e+00 -3.218052927295311783e+00
7.562348513122678639e+00 -3.197398038050764502e+00
7.642799029219728091e+00 -3.173330666490270957e+00
7.723249545316777542e+00 -3.181218892975186563e+00
7.803700061413826994e+00 -3.194434312121398278e+00
7.884150577510876445e+00 -3.179802691704632256e+00
7.964601093607927673e+00 -3.224819301308352593e+00
8.045051609704977125e+00 -3.258969059245745648e+00
8.125502125802025688e+00 -3.278015573267328175e+00
8.205952641899076028e+00 -3.288954375378326578e+00
8.286403157996124591e+00 -3.322059049034697065e+00
8.366853674093176707e+00 -3.343131396332057026e+00
8.447304190190225270e+00 -3.331738107780082725e+00
8.527754706287275610e+00 -3.303980169231373942e+00
8.608205222384324173e+00 -3.271998200169516036e+00
8.688655738481374513e+00 -3.235634208723105587e+00
8.769106254578423076e+00 -3.215328899904806637e+00
8.849556770675475192e+00 -3.207171263947278028e+00
8.930007286772523756e+00 -3.194584359911671445e+00
9.010457802869574095e+00 -3.192299368039711371e+00
9.090908318966622659e+00 -3.214796403058620022e+00
9.171358835063672998e+00 -3.224003260517465108e+00
9.251809351160723338e+00 -3.213965430078926655e+00
9.332259867257773678e+00 -3.211794795064275121e+00
9.412710383354822241e+00 -3.225149301694004933e+00
9.493160899451872581e+00 -3.234677705873068465e+00
9.573611415548921144e+00 -3.224370264870579206e+00
9.654061931645971484e+00 -3.219998418743458046e+00
9.734512447743021823e+00 -3.233310902378530916e+00
9.814962963840072163e+00 -3.250197888130947010e+00
9.895413479937120727e+00 -3.259934551567182037e+00
9.975863996034171066e+00 -3.273725684845954831e+00
1.005631451213121963e+01 -3.273753708992117595e+00
1.013676502822827175e+01 -3.273825837199523026e+00
1.021721554432532031e+01 -3.287135115726538270e+00
1.029766606042237065e+01 -3.296335591364341511e+00
