0.000000000000000000e+00 -1.549019599857431873e-01
8.045051609704977069e-02 -2.098481594057030053e-01
1.609010321940995414e-01 -6.235987263854219087e-01
2.413515482911492982e-01 -1.672493532047842013e+00
3.218020643881990828e-01 -2.170067301746064548e+00
4.022525804852488118e-01 -2.577742195927844371e+00
4.827030965822985964e-01 -2.784339584500701736e+00
5.631536126793483810e-01 -2.989454237200160680e+00
6.436041287763981655e-01 -3.265367254834098620e+00
7.240546448734478391e-01 -3.565523524794790067e+00
8.045051609704976237e-01 -3.721045053595386065e+00
8.849556770675472972e-01 -3.732932964506225026e+00
9.654061931645971928e-01 -3.786383909057724928e+00
1.045856709261647088e+00 -3.797194872700232704e+00
1.126307225358696762e+00 -3.823482260677718347e+00
1.206757741455746435e+00 -3.828068994746667730e+00
1.287208257552796331e+00 -3.776928039510269119e+00
1.367658773649846005e+00 -3.697840490719858320e+00
1.448109289746895678e+00 -3.630866762245608559e+00
1.528559805843945352e+00 -3.541699084932695030e+00
1.609010321940995247e+00 -3.429702753629992884e+00
1.689460838038045143e+00 -3.338974506896222216e+00
1.769911354135094594e+00 -3.249749349666428255e+00
1.850361870232144490e+00 -3.194606418030706330e+00
1.930812386329194386e+00 -3.141406371412856835e+00
2.011262902426244281e+00 -3.081132335026233626e+00
2.091713418523294177e+00 -3.054471542876608492e+00
2.172163934620343628e+00 -3.073012495676636924e+00
2.252614450717393524e+00 -3.120169096535506004e+00
2.333064966814443419e+00 -3.189165349368216162e+00
2.413515482911492871e+00 -3.187195131454538810e+00
2.493965999008542767e+00 -3.163317489297583496e+00
2.574416515105592662e+00 -3.134186301905642846e+00
2.654867031202642558e+00 -3.161629438148476190e+00
2.735317547299692009e+00 -3.178973951649954000e+00
2.815768063396741905e+00 -3.189412935616073863e+00
2.896218579493791356e+00 -3.180633119085927163e+00
2.976669095590841252e+00 -3.167797216209730315e+00
3.057119611687890703e+00 -3.205468691604605347e+00
3.137570127784940599e+00 -3.241348320024571628e+00
3.218020643881990495e+00 -3.200970098005439635e+00
3.298471159979039946e+00 -3.165978251940367638e+00
3.378921676076090286e+00 -3.118036379911421907e+00
3.459372192173139737e+00 -3.079984283240163823e+00
3.539822708270189189e+00 -3.083017999433677048e+00
3.620273224367239528e+00 -3.107513793811893077e+00
3.700723740464288980e+00 -3.131322162113649998e+00
3.781174256561339320e+00 -3.135429496844878816e+00
3.861624772658388771e+00 -3.116576457845066539e+00
3.942075288755438223e+00 -3.119563618590244225e+00
4.022525804852488562e+00 -3.129350017632785086e+00
4.102976320949538014e+00 -3.136507980264721773e+00
4.183426837046588354e+00 -3.138062740309552900e+00
4.263877353143637805e+00 -3.152202557185500353e+00
4.344327869240687257e+00 -3.129843419872978316e+00
4.424778385337737596e+00 -3.126398992493463425e+00
4.505228901434787048e+00 -3.106854832951482681e+00
4.585679417531836499e+00 -3.104706231788698645e+00
4.666129933628886839e+00 -3.108341527791530279e+00
4.746580449725936290e+00 -3.116491320356335581e+00
4.827030965822985742e+00 -3.115212623477927600e+00
4.907481481920036082e+00 -3.140362669997029510e+00
4.987931998017085533e+00 -3.171084348184865842e+00
5.068382514114135873e+00 -3.189262348559732896e+00
5.148833030211185324e+00 -3.172721363185543986e+00
5.229283546308234776e+00 -3.153483988660194637e+00
5.309734062405285115e+00 -3.158371380697428510e+00
5.390184578502334567e+00 -3.180267551934134573e+00
5.470635094599384018e+00 -3.164807585391361755e+00
5.551085610696433470e+00 -3.133130545326187733e+00
5.631536126793483810e+00 -3.131992170279515264e+00
5.711986642890533261e+00 -3.154349242370134032e+00
5.792437158987582713e+00 -3.163697463118393838e+00
5.872887675084633052e+00 -3.113748257749287873e+00
5.953338191181682504e+00 -3.110891265446444454e+00
6.033788707278731955e+00 -3.152696292670326361e+00
6.114239223375781407e+00 -3.159746635525408021e+00
6.194689739472831747e+00 -3.149574852239092060e+00
6.275140255569881198e+00 -3.178253998753986842e+00
6.355590771666931538e+00 -3.202329714013743889e+00
6.436041287763980989e+00 -3.212418049586054369e+00
6.516491803861030441e+00 -3.214705502385236002e+00
6.596942319958079892e+00 -3.205972874464523059e+00
6.677392836055131120e+00 -3.208186028253964039e+00
6.757843352152180572e+00 -3.190898923714378110e+00
6.838293868249230023e+00 -3.167215768537474663e+00
6.918744384346279475e+00 -3.165964213725481535e+00
6.999194900443328926e+00 -3.178631151604003335e+00
7.079645416540378378e+00 -3.205577185830270182e+00
7.160095932637429605e+00 -3.215968001840910695e+00
7.240546448734479057e+00 -3.212092547169768331e+00
7.320996964831528508e+00 -3.216923918401898952e+00
7.401447480928577960e+00 -3.225433936127557466e+00
7.481897997025627411e+00 -3.244799228088190990e+00
7.562348513122678639e+00 -3.244940215301168607e+00
7.642799029219728091e+00 -3.220598786192284013e+00
7.723249545316777542e+00 -3.196202327821065392e+00
7.803700061413826994e+00 -3.212124245657354216e+00
7.884150577510876445e+00 -3.226688434769287017e+00
7.964601093607927673e+00 -3.237443137540042759e+00
8.045051609704977125e+00 -3.260636114975733690e+00
8.125502125802025688e+00 -3.283959739040842596e+00
8.205952641899076028e+00 -3.289128591528956758e+00
8.286403157996124591e+00 -3.297447555333077318e+00
8.366853674093176707e+00 -3.296039709955496555e+00
8.447304190190225270e+00 -3.287061310176961904e+00
8.527754706287275610e+00 -3.287954511637344091e+00
8.608205222384324173e+00 -3.290471990606545383e+00
8.688655738481374513e+00 -3.277496288684447201e+00
8.769106254578423076e+00 -3.267891254091320530e+00
8.849556770675475192e+00 -3.237523582265827038e+00
8.930007286772523756e+00 -3.238373520693083485e+00
9.010457802869574095e+00 -3.230916009241046272e+00
9.090908318966622659e+00 -3.233695786964926988e+00
9.171358835063672998e+00 -3.241571977571370500e+00
9.251809351160723338e+00 -3.277907806454683826e+00
9.332259867257773678e+00 -3.296502778584319504e+00
9.412710383354822241e+00 -3.308205867760183327e+00
9.493160899451872581e+00 -3.308742028380814659e+00
9.573611415548921144e+00 -3.284591215305362244e+00
9.654061931645971484e+00 -3.280832665970034867e+00
9.734512447743021823e+00 -3.297370730625328594e+00
9.814962963840072163e+00 -3.304038056172696081e+00
9.895413479937120727e+00 -3.297482911223258206e+00
9.975863996034171066e+00 -3.311137399414679994e+00
1.005631451213121963e+01 -3.328273645409872028e+00
1.013676502822827175e+01 -3.337118449686367505e+00
1.021721554432532031e+01 -3.327742383484048716e+00
1.029766606042237065e+01 -3.321030278779236955e+00
