0.000000000000000000e+00 -1.549019599857431873e-01
8.045051609704977069e-02 -2.025612083328005297e-01
1.609010321940995414e-01 -5.171821257447182241e-01
2.413515482911492982e-01 -1.349995980268591911e+00
3.218020643881990828e-01 -1.949072315775340680e+00
4.022525804852488118e-01 -2.289032622268150075e+00
4.827030965822985964e-01 -2.607899337274114160e+00
5.631536126793483810e-01 -2.893555541053214775e+00
6.436041287763981655e-01 -3.195758923665290130e+00
7.240546448734478391e-01 -3.423118440138790408e+00
8.045051609704976237e-01 -3.651064875664958187e+00
8.849556770675472972e-01 -3.747485124376937815e+00
9.654061931645971928e-01 -3.796046915817919754e+00
1.045856709261647088e+00 -3.796689895765713807e+00
1.126307225358696762e+00 -3.759240579793750481e+00
1.206757741455746435e+00 -3.703235303445044480e+00
1.287208257552796331e+00 -3.686809862385224346e+00
1.367658773649846005e+00 -3.654849147372378759e+00
1.448109289746895678e+00 -3.609841702976834821e+00
1.528559805843945352e+00 -3.557552385856453725e+00
1.609010321940995247e+00 -3.511992939112886347e+00
1.689460838038045143e+00 -3.460322703019468538e+00
1.769911354135094594e+00 -3.364677421829464610e+00
1.850361870232144490e+00 -3.340063067694783339e+00
1.930812386329194386e+00 -3.356885605244773085e+00
2.011262902426244281e+00 -3.313339277268317229e+00
2.091713418523294177e+00 -3.209841245625195238e+00
2.172163934620343628e+00 -3.092896676877786799e+00
2.252614450717393524e+00 -3.012876485893445810e+00
2.333064966814443419e+00 -3.026813418181937276e+00
2.413515482911492871e+00 -3.078480906810149520e+00
2.493965999008542767e+00 -3.121073502143623557e+00
2.574416515105592662e+00 -3.164530724654174954e+00
2.654867031202642558e+00 -3.215051186379592085e+00
2.735317547299692009e+00 -3.239958776631886916e+00
2.815768063396741905e+00 -3.199019618382638708e+00
2.896218579493791356e+00 -3.134926664557404763e+00
2.976669095590841252e+00 -3.131556695660894007e+00
3.057119611687890703e+00 -3.140450433479783587e+00
3.137570127784940599e+00 -3.154170341965595092e+00
3.218020643881990495e+00 -3.123278274865117332e+00
3.298471159979039946e+00 -3.076666939045075821e+00
3.378921676076090286e+00 -3.026775698421655836e+00
3.459372192173139737e+00 -3.053132471760031663e+00
3.539822708270189189e+00 -3.092297200217442921e+00
3.620273224367239528e+00 -3.111975273029301547e+00
3.700723740464288980e+00 -3.112173870304650425e+00
3.781174256561339320e+00 -3.118239848412598381e+00
3.861624772658388771e+00 -3.137332967912045856e+00
3.942075288755438223e+00 -3.133974750019082212e+00
4.022525804852488562e+00 -3.126861720594995564e+00
4.102976320949538014e+00 -3.126466378423784498e+00
4.183426837046588354e+00 -3.146553698662188481e+00
4.263877353143637805e+00 -3.161254719261832768e+00
4.344327869240687257e+00 -3.143626435366882799e+00
4.424778385337737596e+00 -3.139133354789487296e+00
4.505228901434787048e+00 -3.156917913178746815e+00
4.585679417531836499e+00 -3.162440040168716049e+00
4.666129933628886839e+00 -3.147223273120289377e+00
4.746580449725936290e+00 -3.116572469848453597e+00
4.827030965822985742e+00 -3.101342523850387334e+00
4.907481481920036082e+00 -3.095513229007279321e+00
4.987931998017085533e+00 -3.098744788478120071e+00
5.068382514114135873e+00 -3.097493542680865186e+00
5.148833030211185324e+00 -3.099521018699315622e+00
5.229283546308234776e+00 -3.102792790514352195e+00
5.309734062405285115e+00 -3.126305045326937648e+00
5.390184578502334567e+00 -3.157043519310788859e+00
5.470635094599384018e+00 -3.163732511928096347e+00
5.551085610696433470e+00 -3.143646014374590791e+00
5.631536126793483810e+00 -3.144055340478904892e+00
5.711986642890533261e+00 -3.153333883189957554e+00
5.792437158987582713e+00 -3.153902548906567738e+00
5.872887675084633052e+00 -3.165419291519669720e+00
5.953338191181682504e+00 -3.171732726612797926e+00
6.033788707278731955e+00 -3.170519299789098966e+00
6.114239223375781407e+00 -3.177212290746026735e+00
6.194689739472831747e+00 -3.176030465296442173e+00
6.275140255569881198e+00 -3.187429739367738435e+00
6.355590771666931538e+00 -3.181789250725436169e+00
6.436041287763980989e+00 -3.165315811702118953e+00
6.516491803861030441e+00 -3.151071286961245832e+00
6.596942319958079892e+00 -3.164048437596404195e+00
6.677392836055131120e+00 -3.190467563702039211e+00
6.757843352152180572e+00 -3.214272374223959172e+00
6.838293868249230023e+00 -3.198856237338303821e+00
6.918744384346279475e+00 -3.193512284258601230e+00
6.999194900443328926e+00 -3.213431822035007102e+00
7.079645416540378378e+00 -3.239042951518332103e+00
7.160095932637429605e+00 -3.230182832566693474e+00
7.240546448734479057e+00 -3.193888421339999173e+00
7.320996964831528508e+00 -3.168139213630909889e+00
7.401447480928577960e+00 -3.145344858400165755e+00
7.481897997025627411e+00 -3.143250095365207386e+00
7.562348513122678639e+00 -3.141144078438881770e+00
7.642799029219728091e+00 -3.157893061267988521e+00
7.723249545316777542e+00 -3.178781158986954569e+00
7.803700061413826994e+00 -3.187863360483357944e+00
7.884150577510876445e+00 -3.199716374359167226e+00
7.964601093607927673e+00 -3.208242673138512746e+00
8.045051609704977125e+00 -3.219593200494174745e+00
8.125502125802025688e+00 -3.225663924332730748e+00
8.205952641899076028e+00 -3.209371000719165146e+00
8.286403157996124591e+00 -3.176408276108297457e+00
8.366853674093176707e+00 -3.189149073040928428e+00
8.447304190190225270e+00 -3.243713257366328317e+00
8.527754706287275610e+00 -3.289938248856355330e+00
8.608205222384324173e+00 -3.288051940357330061e+00
8.688655738481374513e+00 -3.245651437925046512e+00
8.769106254578423076e+00 -3.213513662697545570e+00
8.849556770675475192e+00 -3.216246900687577792e+00
8.930007286772523756e+00 -3.221947622458993354e+00
9.010457802869574095e+00 -3.223655728800541631e+00
9.090908318966622659e+00 -3.243563924841502466e+00
9.171358835063672998e+00 -3.259442560518529319e+00
9.251809351160723338e+00 -3.244705817203961562e+00
9.332259867257773678e+00 -3.216527153868154354e+00
9.412710383354822241e+00 -3.196526928978123738e+00
9.493160899451872581e+00 -3.186375725505947276e+00
9.573611415548921144e+00 -3.197835411985502141e+00
9.654061931645971484e+00 -3.226241604085273718e+00
9.734512447743021823e+00 -3.250298875770736284e+00
9.814962963840072163e+00 -3.239755694961753196e+00
9.895413479937120727e+00 -3.225310050544741181e+00
9.975863996034171066e+00 -3.210732716647435314e+00
1.005631451213121963e+01 -3.205700013411081351e+00
1.013676502822827175e+01 -3.236633868583360663e+00
1.021721554432532031e+01 -3.277375146471745548e+00
1.029766606042237065e+01 -3.288632134144031660e+00
