0.000000000000000000e+00 -1.549019599857431873e-01
8.045051609704977069e-02 -1.927107293500984753e-01
1.609010321940995414e-01 -4.965529195723699107e-01
2.413515482911492982e-01 -1.256592451269424426e+00
3.218020643881990828e-01 -1.798731680390806220e+00
4.022525804852488118e-01 -2.257290726133811987e+00
4.827030965822985964e-01 -2.603527952859053585e+00
5.631536126793483810e-01 -2.771558622692407159e+00
6.436041287763981655e-01 -2.975873732074720834e+00
7.240546448734478391e-01 -3.218793782906916423e+00
8.045051609704976237e-01 -3.409570724368870209e+00
8.849556770675472972e-01 -3.494609633365915347e+00
9.654061931645971928e-01 -3.508326694577606819e+00
1.045856709261647088e+00 -3.532579569857214885e+00
1.126307225358696762e+00 -3.559938957129952897e+00
1.206757741455746435e+00 -3.589740103346852784e+00
1.287208257552796331e+00 -3.599598743900974451e+00
1.367658773649846005e+00 -3.546781669282552230e+00
1.448109289746895678e+00 -3.467912324452971262e+00
1.528559805843945352e+00 -3.449133884894166169e+00
1.609010321940995247e+00 -3.461920070749304301e+00
1.689460838038045143e+00 -3.480525873307182216e+00
1.769911354135094594e+00 -3.466520093454520168e+00
1.850361870232144490e+00 -3.387030993061704631e+00
1.930812386329194386e+00 -3.293135788652502338e+00
2.011262902426244281e+00 -3.209101479275817681e+00
2.091713418523294177e+00 -3.151692554418962899e+00
2.172163934620343628e+00 -3.101887189673466327e+00
2.252614450717393524e+00 -3.022473356981785653e+00
2.333064966814443419e+00 -2.963325080018268221e+00
2.413515482911492871e+00 -2.961336044087067965e+00
2.493965999008542767e+00 -2.990551536598910598e+00
2.574416515105592662e+00 -3.048062800488024138e+00
2.654867031202642558e+00 -3.091989113718609072e+00
2.735317547299692009e+00 -3.128356690764794834e+00
2.815768063396741905e+00 -3.136419535547029458e+00
2.896218579493791356e+00 -3.131513264324575996e+00
2.976669095590841252e+00 -3.117726451626474660e+00
3.057119611687890703e+00 -3.121270375805973885e+00
3.137570127784940599e+00 -3.111709496684179843e+00
3.218020643881990495e+00 -3.081439711845546547e+00
3.298471159979039946e+00 -3.067334490837853256e+00
3.378921676076090286e+00 -3.050563652469203024e+00
3.459372192173139737e+00 -3.081429670457436210e+00
3.539822708270189189e+00 -3.105544440215174617e+00
3.620273224367239528e+00 -3.071530345407687879e+00
3.700723740464288980e+00 -3.042608594034274194e+00
3.781174256561339320e+00 -3.062344499957058819e+00
3.861624772658388771e+00 -3.102603092392816286e+00
3.942075288755438223e+00 -3.136309183791670119e+00
4.022525804852488562e+00 -3.126771726211026170e+00
4.102976320949538014e+00 -3.116802729152782891e+00
4.183426837046588354e+00 -3.113662195081324580e+00
4.263877353143637805e+00 -3.117961544826869158e+00
4.344327869240687257e+00 -3.110120921776305281e+00
4.424778385337737596e+00 -3.118242000866388697e+00
4.505228901434787048e+00 -3.106764306929638231e+00
4.585679417531836499e+00 -3.079057544520249934e+00
4.666129933628886839e+00 -3.070653868550627497e+00
4.746580449725936290e+00 -3.107385034745877128e+00
4.827030965822985742e+00 -3.171580531409661230e+00
4.907481481920036082e+00 -3.211461483800248651e+00
4.987931998017085533e+00 -3.205547572128437217e+00
5.068382514114135873e+00 -3.158585970005571397e+00
5.148833030211185324e+00 -3.152546000306358565e+00
5.229283546308234776e+00 -3.183145911929674554e+00
5.309734062405285115e+00 -3.193826827457033168e+00
5.390184578502334567e+00 -3.191844481936211064e+00
5.470635094599384018e+00 -3.167191887618251211e+00
5.551085610696433470e+00 -3.124443480537533624e+00
5.631536126793483810e+00 -3.103355430968686157e+00
5.711986642890533261e+00 -3.100262143890168964e+00
5.792437158987582713e+00 -3.143966621127776584e+00
5.872887675084633052e+00 -3.190935468563017352e+00
5.953338191181682504e+00 -3.207699203737889970e+00
6.033788707278731955e+00 -3.176576636539530263e+00
6.114239223375781407e+00 -3.163708235933261115e+00
6.194689739472831747e+00 -3.154884572806796683e+00
6.275140255569881198e+00 -3.139433963753129664e+00
6.355590771666931538e+00 -3.147011815193101469e+00
6.436041287763980989e+00 -3.180799791244895314e+00
6.516491803861030441e+00 -3.197443640459873393e+00
6.596942319958079892e+00 -3.170956116274353143e+00
6.677392836055131120e+00 -3.122121125227968363e+00
6.757843352152180572e+00 -3.103900509610012293e+00
6.838293868249230023e+00 -3.132533079825728262e+00
6.918744384346279475e+00 -3.158216353957507216e+00
6.999194900443328926e+00 -3.162965978752327434e+00
7.079645416540378378e+00 -3.183147158745490479e+00
7.160095932637429605e+00 -3.185015369546352559e+00
7.240546448734479057e+00 -3.178908332853797258e+00
7.320996964831528508e+00 -3.198579779527337852e+00
7.401447480928577960e+00 -3.217146359572562009e+00
7.481897997025627411e+00 -3.203521847986594118e+00
7.562348513122678639e+00 -3.169233528085498186e+00
7.642799029219728091e+00 -3.173383026652583538e+00
7.723249545316777542e+00 -3.205717521714542606e+00
7.803700061413826994e+00 -3.199426243466237718e+00
7.884150577510876445e+00 -3.172298754596051040e+00
7.964601093607927673e+00 -3.144702447678667578e+00
8.045051609704977125e+00 -3.136767983120596792e+00
8.125502125802025688e+00 -3.162531569606562343e+00
8.205952641899076028e+00 -3.175086392499717025e+00
8.286403157996124591e+00 -3.160687760433702032e+00
8.366853674093176707e+00 -3.148904520919883154e+00
8.447304190190225270e+00 -3.177308510346362969e+00
8.527754706287275610e+00 -3.225767880326611436e+00
8.608205222384324173e+00 -3.251027905830101261e+00
8.688655738481374513e+00 -3.253579748308507380e+00
8.769106254578423076e+00 -3.258009254188846793e+00
8.849556770675475192e+00 -3.261836370656094442e+00
8.930007286772523756e+00 -3.250927017939552410e+00
9.010457802869574095e+00 -3.235988364119885219e+00
9.090908318966622659e+00 -3.233194664848536792e+00
9.171358835063672998e+00 -3.245165828069524583e+00
9.251809351160723338e+00 -3.268599737423449447e+00
9.332259867257773678e+00 -3.297178862801003696e+00
9.412710383354822241e+00 -3.301533335974357275e+00
9.493160899451872581e+00 -3.306926078741728503e+00
9.573611415548921144e+00 -3.296644774006400880e+00
9.654061931645971484e+00 -3.277917812996314240e+00
9.734512447743021823e+00 -3.262208533142122224e+00
9.814962963840072163e+00 -3.250725603989289780e+00
9.895413479937120727e+00 -3.242076036357802504e+00
9.975863996034171066e+00 -3.249542313772457724e+00
1.005631451213121963e+01 -3.273906682761837494e+00
1.013676502822827175e+01 -3.298398441574631690e+00
1.021721554432532031e+01 -3.314554937773750876e+00
1.029766606042237065e+01 -3.327324271886239249e+00
