0.000000000000000000e+00 -1.549019599857431873e-01
8.045051609704977069e-02 -1.667311056429602312e-01
1.609010321940995414e-01 -3.536499701786841587e-01
2.413515482911492982e-01 -7.282699545859012691e-01
3.218020643881990828e-01 -1.127783636702109238e+00
4.022525804852488118e-01 -1.771526601533403023e+00
4.827030965822985964e-01 -2.507417466916194382e+00
5.631536126793483810e-01 -2.606627643698097074e+00
6.436041287763981655e-01 -2.700285117956822134e+00
7.240546448734478391e-01 -2.942786680449157810e+00
8.045051609704976237e-01 -3.280129888591841070e+00
8.849556770675472972e-01 -3.577486077904906914e+00
9.654061931645971928e-01 -3.759112063408180049e+00
1.045856709261647088e+00 -3.796329623760395844e+00
1.126307225358696762e+00 -3.765422709294584447e+00
1.206757741455746435e+00 -3.708068238020238550e+00
1.287208257552796331e+00 -3.631461283673123930e+00
1.367658773649846005e+00 -3.584542505399221923e+00
1.448109289746895678e+00 -3.583310327120267313e+00
1.528559805843945352e+00 -3.553948896667177948e+00
1.609010321940995247e+00 -3.476900757841161038e+00
1.689460838038045143e+00 -3.451409068652544931e+00
1.769911354135094594e+00 -3.392037624394963036e+00
1.850361870232144490e+00 -3.304835857094647444e+00
1.930812386329194386e+00 -3.264780713749176222e+00
2.011262902426244281e+00 -3.295010367513337979e+00
2.091713418523294177e+00 -3.277294189923152690e+00
2.172163934620343628e+00 -3.218461362202178933e+00
2.252614450717393524e+00 -3.206799247053292667e+00
2.333064966814443419e+00 -3.231828417819256671e+00
2.413515482911492871e+00 -3.271607202418839844e+00
2.493965999008542767e+00 -3.299361173826021787e+00
2.574416515105592662e+00 -3.270866342797333459e+00
2.654867031202642558e+00 -3.218576859491378617e+00
2.735317547299692009e+00 -3.200863132774927955e+00
2.815768063396741905e+00 -3.204826480073954098e+00
2.896218579493791356e+00 -3.239361428496333684e+00
2.976669095590841252e+00 -3.260216256354718123e+00
3.057119611687890703e+00 -3.238680065774925509e+00
3.137570127784940599e+00 -3.200424412217763859e+00
3.218020643881990495e+00 -3.163096590787298990e+00
3.298471159979039946e+00 -3.173040386233447308e+00
3.378921676076090286e+00 -3.157843042500990016e+00
3.459372192173139737e+00 -3.181741957668649867e+00
3.539822708270189189e+00 -3.182957374867686706e+00
3.620273224367239528e+00 -3.160272493448911924e+00
3.700723740464288980e+00 -3.167233183434837063e+00
3.781174256561339320e+00 -3.191118837809365782e+00
3.861624772658388771e+00 -3.227509988621867887e+00
3.942075288755438223e+00 -3.256096285505564403e+00
4.022525804852488562e+00 -3.294883503284328441e+00
4.102976320949538014e+00 -3.327354491574301854e+00
4.183426837046588354e+00 -3.362985595078108236e+00
4.263877353143637805e+00 -3.379473181160251638e+00
4.344327869240687257e+00 -3.349812418975606665e+00
4.424778385337737596e+00 -3.308361317530207568e+00
4.505228901434787048e+00 -3.298603529867697226e+00
4.585679417531836499e+00 -3.338218705916433660e+00
4.666129933628886839e+00 -3.342093363328944022e+00
4.746580449725936290e+00 -3.296671271374605805e+00
4.827030965822985742e+00 -3.250421401152723266e+00
4.907481481920036082e+00 -3.246007632183204983e+00
4.987931998017085533e+00 -3.282589120035715347e+00
5.068382514114135873e+00 -3.315998204538444849e+00
5.148833030211185324e+00 -3.315970424233126934e+00
5.229283546308234776e+00 -3.286155598121571320e+00
5.309734062405285115e+00 -3.274685269590396075e+00
5.390184578502334567e+00 -3.294714900376298328e+00
5.470635094599384018e+00 -3.337344910147165056e+00
5.551085610696433470e+00 -3.362039465564864660e+00
5.631536126793483810e+00 -3.350149022358035023e+00
5.711986642890533261e+00 -3.323115108418311259e+00
5.792437158987582713e+00 -3.296786477487614331e+00
5.872887675084633052e+00 -3.270023561599953332e+00
5.953338191181682504e+00 -3.261725934809102778e+00
6.033788707278731955e+00 -3.276107495244464207e+00
6.114239223375781407e+00 -3.283730937115341586e+00
6.194689739472831747e+00 -3.290563189997257165e+00
6.275140255569881198e+00 -3.284802324401344453e+00
6.355590771666931538e+00 -3.261492149941086716e+00
6.436041287763980989e+00 -3.243380204252404031e+00
6.516491803861030441e+00 -3.260528479167413618e+00
6.596942319958079892e+00 -3.293885591050301986e+00
6.677392836055131120e+00 -3.318007402771865344e+00
6.757843352152180572e+00 -3.336220474992937390e+00
6.838293868249230023e+00 -3.351491418434929148e+00
6.918744384346279475e+00 -3.339846506476618959e+00
6.999194900443328926e+00 -3.318159895924199354e+00
7.079645416540378378e+00 -3.298821565622827912e+00
7.160095932637429605e+00 -3.313224275659295781e+00
7.240546448734479057e+00 -3.336606061588252459e+00
7.320996964831528508e+00 -3.323561464600584880e+00
7.401447480928577960e+00 -3.303919020433007780e+00
7.481897997025627411e+00 -3.317430918206988544e+00
7.562348513122678639e+00 -3.337411820817035579e+00
7.642799029219728091e+00 -3.339695804131708634e+00
7.723249545316777542e+00 -3.316414858861912229e+00
7.803700061413826994e+00 -3.305115537447531171e+00
7.884150577510876445e+00 -3.322919967616163817e+00
7.964601093607927673e+00 -3.357464792032707646e+00
8.045051609704977125e+00 -3.383369256632358546e+00
8.125502125802025688e+00 -3.386658148317676975e+00
8.205952641899076028e+00 -3.362600630304442895e+00
8.286403157996124591e+00 -3.320016879044349611e+00
8.366853674093176707e+00 -3.292618436803202542e+00
8.447304190190225270e+00 -3.305520404302473292e+00
8.527754706287275610e+00 -3.334423746162136215e+00
8.608205222384324173e+00 -3.375685950575371574e+00
8.688655738481374513e+00 -3.386080265170940962e+00
8.769106254578423076e+00 -3.370329471482558681e+00
8.849556770675475192e+00 -3.351116937935036955e+00
8.930007286772523756e+00 -3.358883149801647150e+00
9.010457802869574095e+00 -3.377614967667480705e+00
9.090908318966622659e+00 -3.391035621316487170e+00
9.171358835063672998e+00 -3.403828389588097192e+00
9.251809351160723338e+00 -3.420828147013596165e+00
9.332259867257773678e+00 -3.448152454329235006e+00
9.412710383354822241e+00 -3.460334642589477205e+00
9.493160899451872581e+00 -3.464105785476889743e+00
9.573611415548921144e+00 -3.436645655710309999e+00
9.654061931645971484e+00 -3.413437999293960523e+00
9.734512447743021823e+00 -3.393326044866366242e+00
9.814962963840072163e+00 -3.382834678375812754e+00
9.895413479937120727e+00 -3.371924840896682429e+00
9.975863996034171066e+00 -3.377949367572831374e+00
1.005631451213121963e+01 -3.394253155433788471e+00
1.013676502822827175e+01 -3.420386291917829169e+00
1.021721554432532031e+01 -3.439065117157307672e+00
1.029766606042237065e+01 -3.451394735287111271e+00
