0.000000000000000000e+00 -1.549019599857431873e-01
8.045051609704977069e-02 -2.034113363542546515e-01
1.609010321940995414e-01 -5.444783380386191141e-01
2.413515482911492982e-01 -1.601129582935360451e+00
3.218020643881990828e-01 -2.063572856155960089e+00
4.022525804852488118e-01 -2.570957507451354207e+00
4.827030965822985964e-01 -3.052116210309290700e+00
5.631536126793483810e-01 -3.248022183137678986e+00
6.436041287763981655e-01 -3.402905481934216603e+00
7.240546448734478391e-01 -3.545007637283108526e+00
8.045051609704976237e-01 -3.674243228416874008e+00
8.849556770675472972e-01 -3.739943908971405495e+00
9.654061931645971928e-01 -3.734734003216755749e+00
1.045856709261647088e+00 -3.732549207414058934e+00
1.126307225358696762e+00 -3.779159629248257435e+00
1.206757741455746435e+00 -3.811269499319351883e+00
1.287208257552796331e+00 -3.806667034079711520e+00
1.367658773649846005e+00 -3.780208265793970401e+00
1.448109289746895678e+00 -3.737081532442792842e+00
1.528559805843945352e+00 -3.696269588571146514e+00
1.609010321940995247e+00 -3.627342627984500467e+00
1.689460838038045143e+00 -3.551613054820510929e+00
1.769911354135094594e+00 -3.502834744272037781e+00
1.850361870232144490e+00 -3.425247178928650715e+00
1.930812386329194386e+00 -3.283344304327124874e+00
2.011262902426244281e+00 -3.177790254010808724e+00
2.091713418523294177e+00 -3.161753577199808429e+00
2.172163934620343628e+00 -3.161000744184705447e+00
2.252614450717393524e+00 -3.142485686560290148e+00
2.333064966814443419e+00 -3.165620360180756432e+00
2.413515482911492871e+00 -3.250411121952842652e+00
2.493965999008542767e+00 -3.299639508459702775e+00
2.574416515105592662e+00 -3.298460711021612646e+00
2.654867031202642558e+00 -3.325254515894861207e+00
2.735317547299692009e+00 -3.333953531673290893e+00
2.815768063396741905e+00 -3.317413970665545886e+00
2.896218579493791356e+00 -3.264279712060653260e+00
2.976669095590841252e+00 -3.224315890847246013e+00
3.057119611687890703e+00 -3.231522095403771111e+00
3.137570127784940599e+00 -3.261706706927466559e+00
3.218020643881990495e+00 -3.232566067917827635e+00
3.298471159979039946e+00 -3.178268786678067670e+00
3.378921676076090286e+00 -3.143801476264117767e+00
3.459372192173139737e+00 -3.085190131508495970e+00
3.539822708270189189e+00 -3.049567896617768614e+00
3.620273224367239528e+00 -3.093037606773886505e+00
3.700723740464288980e+00 -3.165288783192512945e+00
3.781174256561339320e+00 -3.187550279201083470e+00
3.861624772658388771e+00 -3.176572452239055711e+00
3.942075288755438223e+00 -3.182656381214939323e+00
4.022525804852488562e+00 -3.208467809708768659e+00
4.102976320949538014e+00 -3.232594072355190029e+00
4.183426837046588354e+00 -3.245865619390722490e+00
4.263877353143637805e+00 -3.239794598339966303e+00
4.344327869240687257e+00 -3.236315554804220174e+00
4.424778385337737596e+00 -3.232935570262372771e+00
4.505228901434787048e+00 -3.229695550198261156e+00
4.585679417531836499e+00 -3.251966524946188652e+00
4.666129933628886839e+00 -3.258691389857828913e+00
4.746580449725936290e+00 -3.270148825968926420e+00
4.827030965822985742e+00 -3.265808807523961299e+00
4.907481481920036082e+00 -3.266120313686163623e+00
4.987931998017085533e+00 -3.257263323434906432e+00
5.068382514114135873e+00 -3.234699497148782577e+00
5.148833030211185324e+00 -3.231044729178717212e+00
5.229283546308234776e+00 -3.269620770482351890e+00
5.309734062405285115e+00 -3.295776526725837652e+00
5.390184578502334567e+00 -3.287757252292919485e+00
5.470635094599384018e+00 -3.264491691517065419e+00
5.551085610696433470e+00 -3.263564571324480301e+00
5.631536126793483810e+00 -3.300180698959905623e+00
5.711986642890533261e+00 -3.320164761033509659e+00
5.792437158987582713e+00 -3.310604272167330997e+00
5.872887675084633052e+00 -3.262134868712815550e+00
5.953338191181682504e+00 -3.216239759537783627e+00
6.033788707278731955e+00 -3.209718818946147856e+00
6.114239223375781407e+00 -3.248010925890758127e+00
6.194689739472831747e+00 -3.292394329242654294e+00
6.275140255569881198e+00 -3.336871611008692451e+00
6.355590771666931538e+00 -3.355270974247932525e+00
6.436041287763980989e+00 -3.335544078357850051e+00
6.516491803861030441e+00 -3.310992301811455540e+00
6.596942319958079892e+00 -3.331099413868577663e+00
6.677392836055131120e+00 -3.362165010981698288e+00
6.757843352152180572e+00 -3.375009820338067179e+00
6.838293868249230023e+00 -3.393960139096347195e+00
6.918744384346279475e+00 -3.396551200742984555e+00
6.999194900443328926e+00 -3.368218073827997650e+00
7.079645416540378378e+00 -3.349010369440603707e+00
7.160095932637429605e+00 -3.336766097740905934e+00
7.240546448734479057e+00 -3.327564218884102587e+00
7.320996964831528508e+00 -3.345427621681733132e+00
7.401447480928577960e+00 -3.366952939797182687e+00
7.481897997025627411e+00 -3.367649325104763669e+00
7.562348513122678639e+00 -3.360096039235867416e+00
7.642799029219728091e+00 -3.358224430661308268e+00
7.723249545316777542e+00 -3.382627218401068614e+00
7.803700061413826994e+00 -3.404184255382939561e+00
7.884150577510876445e+00 -3.423609450402682608e+00
7.964601093607927673e+00 -3.417968121129211667e+00
8.045051609704977125e+00 -3.386253646523762484e+00
8.125502125802025688e+00 -3.344857027883586742e+00
8.205952641899076028e+00 -3.333362484650316038e+00
8.286403157996124591e+00 -3.353731904643706851e+00
8.366853674093176707e+00 -3.371090266185086559e+00
8.447304190190225270e+00 -3.379014978581852180e+00
8.527754706287275610e+00 -3.376057416364800723e+00
8.608205222384324173e+00 -3.390245444261969610e+00
8.688655738481374513e+00 -3.398289672711826803e+00
8.769106254578423076e+00 -3.402538606637795837e+00
8.849556770675475192e+00 -3.403586981275155576e+00
8.930007286772523756e+00 -3.401601541871117185e+00
9.010457802869574095e+00 -3.423682302768848551e+00
9.090908318966622659e+00 -3.441944167767062801e+00
9.171358835063672998e+00 -3.444751181605941071e+00
9.251809351160723338e+00 -3.454378202956629007e+00
9.332259867257773678e+00 -3.462020405942515033e+00
9.412710383354822241e+00 -3.445965805139098670e+00
9.493160899451872581e+00 -3.417027163343536511e+00
9.573611415548921144e+00 -3.397332340027129582e+00
9.654061931645971484e+00 -3.416749819401950106e+00
9.734512447743021823e+00 -3.447796931018327182e+00
9.814962963840072163e+00 -3.471527203526404204e+00
9.895413479937120727e+00 -3.474748702118991339e+00
9.975863996034171066e+00 -3.462628292825185472e+00
1.005631451213121963e+01 -3.454953883093160538e+00
1.013676502822827175e+01 -3.454539561970851658e+00
1.021721554432532031e+01 -3.490203913284310566e+00
1.029766606042237065e+01 -3.508702005671031632e+00
