0.000000000000000000e+00 -1.549019599857431873e-01
8.045051609704977069e-02 -2.048702065364092773e-01
1.609010321940995414e-01 -5.792733088538336572e-01
2.413515482911492982e-01 -1.360889576828753667e+00
3.218020643881990828e-01 -1.863935868521017891e+00
4.022525804852488118e-01 -2.568690934481877353e+00
4.827030965822985964e-01 -3.077311066032979436e+00
5.631536126793483810e-01 -3.409206228196190125e+00
6.436041287763981655e-01 -3.768286922171870668e+00
7.240546448734478391e-01 -3.874858658043737414e+00
8.045051609704976237e-01 -3.850282977814302843e+00
8.849556770675472972e-01 -3.877763122534028994e+00
9.654061931645971928e-01 -3.900125818672476097e+00
1.045856709261647088e+00 -3.843534308997269111e+00
1.126307225358696762e+00 -3.775956685285640990e+00
1.206757741455746435e+00 -3.757712297267571167e+00
1.287208257552796331e+00 -3.744107421500030952e+00
1.367658773649846005e+00 -3.769520160609256543e+00
1.448109289746895678e+00 -3.780549839187438810e+00
1.528559805843945352e+00 -3.707549970351299073e+00
1.609010321940995247e+00 -3.572358982789364035e+00
1.689460838038045143e+00 -3.471762071107608705e+00
1.769911354135094594e+00 -3.429725172855071946e+00
1.850361870232144490e+00 -3.363002687953919434e+00
1.930812386329194386e+00 -3.261447516531291502e+00
2.011262902426244281e+00 -3.209957364774542299e+00
2.091713418523294177e+00 -3.179526975407168887e+00
2.172163934620343628e+00 -3.134218224708631872e+00
2.252614450717393524e+00 -3.124629052727037504e+00
2.333064966814443419e+00 -3.153061744736354033e+00
2.413515482911492871e+00 -3.169675368202233834e+00
2.493965999008542767e+00 -3.174336867788942751e+00
2.574416515105592662e+00 -3.169559045298449007e+00
2.654867031202642558e+00 -3.210486801343429786e+00
2.735317547299692009e+00 -3.265692681640495199e+00
2.815768063396741905e+00 -3.316394644215669985e+00
2.896218579493791356e+00 -3.333897973115103053e+00
2.976669095590841252e+00 -3.294829680999895594e+00
3.057119611687890703e+00 -3.209243087416185247e+00
3.137570127784940599e+00 -3.145414009372190733e+00
3.218020643881990495e+00 -3.139112318588585193e+00
3.298471159979039946e+00 -3.188410702788992523e+00
3.378921676076090286e+00 -3.267414122404282750e+00
3.459372192173139737e+00 -3.282844761264527289e+00
3.539822708270189189e+00 -3.266258008629880916e+00
3.620273224367239528e+00 -3.198433442712607100e+00
3.700723740464288980e+00 -3.148159652439127321e+00
3.781174256561339320e+00 -3.130718685238667032e+00
3.861624772658388771e+00 -3.159677965415349732e+00
3.942075288755438223e+00 -3.195938186726179353e+00
4.022525804852488562e+00 -3.218842252661115566e+00
4.102976320949538014e+00 -3.211425851080358385e+00
4.183426837046588354e+00 -3.200033164169403754e+00
4.263877353143637805e+00 -3.209832422767346038e+00
4.344327869240687257e+00 -3.248910198124555393e+00
4.424778385337737596e+00 -3.270164852163699454e+00
4.505228901434787048e+00 -3.264383246179786369e+00
4.585679417531836499e+00 -3.238103654578663892e+00
4.666129933628886839e+00 -3.199435958348183728e+00
4.746580449725936290e+00 -3.190770458162735856e+00
4.827030965822985742e+00 -3.205003559877102948e+00
4.907481481920036082e+00 -3.237691930446598310e+00
4.987931998017085533e+00 -3.252989783390419110e+00
5.068382514114135873e+00 -3.240406867397933599e+00
5.148833030211185324e+00 -3.241270380550959285e+00
5.229283546308234776e+00 -3.266661438291620811e+00
5.309734062405285115e+00 -3.284356009313413871e+00
5.390184578502334567e+00 -3.285067717021445066e+00
5.470635094599384018e+00 -3.267216271415615658e+00
5.551085610696433470e+00 -3.259847775976269180e+00
5.631536126793483810e+00 -3.291429400896136226e+00
5.711986642890533261e+00 -3.323180057825116940e+00
5.792437158987582713e+00 -3.349840050738471131e+00
5.872887675084633052e+00 -3.339907011692581751e+00
5.953338191181682504e+00 -3.324259696836000533e+00
6.033788707278731955e+00 -3.309910052335358177e+00
6.114239223375781407e+00 -3.303876545867072245e+00
6.194689739472831747e+00 -3.277687582889129203e+00
6.275140255569881198e+00 -3.256308083775306894e+00
6.355590771666931538e+00 -3.271032065064624739e+00
6.436041287763980989e+00 -3.294340601945997538e+00
6.516491803861030441e+00 -3.289996945106175463e+00
6.596942319958079892e+00 -3.314713839674339635e+00
6.677392836055131120e+00 -3.339797058298872745e+00
6.757843352152180572e+00 -3.331380657815468105e+00
6.838293868249230023e+00 -3.337686326846504681e+00
6.918744384346279475e+00 -3.339158561997218388e+00
6.999194900443328926e+00 -3.334507857897450300e+00
7.079645416540378378e+00 -3.344227942394721875e+00
7.160095932637429605e+00 -3.367930347720429651e+00
7.240546448734479057e+00 -3.373878786115513506e+00
7.320996964831528508e+00 -3.361403774884419882e+00
7.401447480928577960e+00 -3.346450175739684507e+00
7.481897997025627411e+00 -3.368540171330172583e+00
7.562348513122678639e+00 -3.376363291325903404e+00
7.642799029219728091e+00 -3.356395645922970239e+00
7.723249545316777542e+00 -3.335855966693862307e+00
7.803700061413826994e+00 -3.343929095798318318e+00
7.884150577510876445e+00 -3.356435248871292298e+00
7.964601093607927673e+00 -3.353659944682250149e+00
8.045051609704977125e+00 -3.352275629661038980e+00
8.125502125802025688e+00 -3.357594580111435523e+00
8.205952641899076028e+00 -3.356194147763914781e+00
8.286403157996124591e+00 -3.346566995931789190e+00
8.366853674093176707e+00 -3.361526836227080928e+00
8.447304190190225270e+00 -3.391437954496244078e+00
8.527754706287275610e+00 -3.409090186763183539e+00
8.608205222384324173e+00 -3.382652012590037671e+00
8.688655738481374513e+00 -3.361625529429491444e+00
8.769106254578423076e+00 -3.369732100051632262e+00
8.849556770675475192e+00 -3.390602666019214784e+00
8.930007286772523756e+00 -3.406912713281545546e+00
9.010457802869574095e+00 -3.403981278835759738e+00
9.090908318966622659e+00 -3.378408285395571475e+00
9.171358835063672998e+00 -3.365585341058753066e+00
9.251809351160723338e+00 -3.390518855026114053e+00
9.332259867257773678e+00 -3.422014397082393078e+00
9.412710383354822241e+00 -3.465403493044258543e+00
9.493160899451872581e+00 -3.480172895097816355e+00
9.573611415548921144e+00 -3.444432129136715925e+00
9.654061931645971484e+00 -3.374801481966547279e+00
9.734512447743021823e+00 -3.352734944780725979e+00
9.814962963840072163e+00 -3.367928093749980700e+00
9.895413479937120727e+00 -3.401108936367700952e+00
9.975863996034171066e+00 -3.410989285472741717e+00
1.005631451213121963e+01 -3.406586252732082265e+00
1.013676502822827175e+01 -3.415672189456580909e+00
1.021721554432532031e+01 -3.439998209701777832e+00
1.029766606042237065e+01 -3.448194426441668625e+00
