0.000000000000000000e+00 -1.549019599857431873e-01
8.045051609704977069e-02 -2.040906244415922888e-01
1.609010321940995414e-01 -5.834747990611258706e-01
2.413515482911492982e-01 -1.411655429577841403e+00
3.218020643881990828e-01 -1.995402010607350674e+00
4.022525804852488118e-01 -2.848682329729137486e+00
4.827030965822985964e-01 -3.103918633838914420e+00
5.631536126793483810e-01 -3.065348870503222578e+00
6.436041287763981655e-01 -3.189456222338446612e+00
7.240546448734478391e-01 -3.416566532441943416e+00
8.045051609704976237e-01 -3.613560342666232827e+00
8.849556770675472972e-01 -3.782793431637502479e+00
9.654061931645971928e-01 -3.757903950754793776e+00
1.045856709261647088e+00 -3.686751855041936921e+00
1.126307225358696762e+00 -3.695125042155887662e+00
1.206757741455746435e+00 -3.716703144925210811e+00
1.287208257552796331e+00 -3.733661970685130171e+00
1.367658773649846005e+00 -3.731710308558604083e+00
1.448109289746895678e+00 -3.677075818360892701e+00
1.528559805843945352e+00 -3.586681408425208772e+00
1.609010321940995247e+00 -3.493877739042268615e+00
1.689460838038045143e+00 -3.426194411626114711e+00
1.769911354135094594e+00 -3.398573236753717364e+00
1.850361870232144490e+00 -3.383504655251902804e+00
1.930812386329194386e+00 -3.369833157530462753e+00
2.011262902426244281e+00 -3.306202413237441906e+00
2.091713418523294177e+00 -3.228927117759115006e+00
2.172163934620343628e+00 -3.194393518578916513e+00
2.252614450717393524e+00 -3.212794726711737159e+00
2.333064966814443419e+00 -3.219219719475057140e+00
2.413515482911492871e+00 -3.234179370397776143e+00
2.493965999008542767e+00 -3.264671950615998686e+00
2.574416515105592662e+00 -3.286503988552868183e+00
2.654867031202642558e+00 -3.291437848960076185e+00
2.735317547299692009e+00 -3.289956814699184218e+00
2.815768063396741905e+00 -3.260411569188145453e+00
2.896218579493791356e+00 -3.265897808211151165e+00
2.976669095590841252e+00 -3.301007773327107930e+00
3.057119611687890703e+00 -3.325982931959562183e+00
3.137570127784940599e+00 -3.278275823832848435e+00
3.218020643881990495e+00 -3.223725304299077443e+00
3.298471159979039946e+00 -3.205217914187290074e+00
3.378921676076090286e+00 -3.217693921134035406e+00
3.459372192173139737e+00 -3.227597800982643150e+00
3.539822708270189189e+00 -3.247935855388596416e+00
3.620273224367239528e+00 -3.252693917264084522e+00
3.700723740464288980e+00 -3.219496255656758787e+00
3.781174256561339320e+00 -3.199947390578217643e+00
3.861624772658388771e+00 -3.219299336894207553e+00
3.942075288755438223e+00 -3.238560769106367143e+00
4.022525804852488562e+00 -3.243109268201243900e+00
4.102976320949538014e+00 -3.249868596345641958e+00
4.183426837046588354e+00 -3.278888178424773425e+00
4.263877353143637805e+00 -3.270151420123660557e+00
4.344327869240687257e+00 -3.243808972895898979e+00
4.424778385337737596e+00 -3.235970225925178578e+00
4.505228901434787048e+00 -3.243751886469679935e+00
4.585679417531836499e+00 -3.245768448998108013e+00
4.666129933628886839e+00 -3.245528103785387586e+00
4.746580449725936290e+00 -3.271792869788262781e+00
4.827030965822985742e+00 -3.267023271450610444e+00
4.907481481920036082e+00 -3.227497475610997313e+00
4.987931998017085533e+00 -3.214601578947182681e+00
5.068382514114135873e+00 -3.218069185634223395e+00
5.148833030211185324e+00 -3.254140631726355259e+00
5.229283546308234776e+00 -3.265720525616730541e+00
5.309734062405285115e+00 -3.254495052793950904e+00
5.390184578502334567e+00 -3.255370851813265354e+00
5.470635094599384018e+00 -3.286831709357934006e+00
5.551085610696433470e+00 -3.293608001584615419e+00
5.631536126793483810e+00 -3.255408583992932758e+00
5.711986642890533261e+00 -3.216965724172336394e+00
5.792437158987582713e+00 -3.227402140936733943e+00
5.872887675084633052e+00 -3.242829626600316040e+00
5.953338191181682504e+00 -3.271830157136623285e+00
6.033788707278731955e+00 -3.316903030798466379e+00
6.114239223375781407e+00 -3.353174580722953824e+00
6.194689739472831747e+00 -3.351599776435140843e+00
6.275140255569881198e+00 -3.341870523241359248e+00
6.355590771666931538e+00 -3.344692500064243124e+00
6.436041287763980989e+00 -3.362012700852456071e+00
6.516491803861030441e+00 -3.339129804888003594e+00
6.596942319958079892e+00 -3.306886666533965347e+00
6.677392836055131120e+00 -3.292722598755852381e+00
6.757843352152180572e+00 -3.304675474196800078e+00
6.838293868249230023e+00 -3.322703028976354389e+00
6.918744384346279475e+00 -3.330903008188183190e+00
6.999194900443328926e+00 -3.302679244344600029e+00
7.079645416540378378e+00 -3.282195589904045363e+00
7.160095932637429605e+00 -3.291789771826302058e+00
7.240546448734479057e+00 -3.327518479660577011e+00
7.320996964831528508e+00 -3.326504537592134270e+00
7.401447480928577960e+00 -3.302550605956789287e+00
7.481897997025627411e+00 -3.325101152285613537e+00
7.562348513122678639e+00 -3.385339849318157235e+00
7.642799029219728091e+00 -3.410085675273222705e+00
7.723249545316777542e+00 -3.388708462215269446e+00
7.803700061413826994e+00 -3.356191599921251267e+00
7.884150577510876445e+00 -3.336041949743629331e+00
7.964601093607927673e+00 -3.340848725253668494e+00
8.045051609704977125e+00 -3.351441388053033599e+00
8.125502125802025688e+00 -3.374292870967084745e+00
8.205952641899076028e+00 -3.400930316884596127e+00
8.286403157996124591e+00 -3.421223683563866746e+00
8.366853674093176707e+00 -3.421469991397022792e+00
8.447304190190225270e+00 -3.410675845828880615e+00
8.527754706287275610e+00 -3.404766660046464555e+00
8.608205222384324173e+00 -3.395093530763338308e+00
8.688655738481374513e+00 -3.386519212998976069e+00
8.769106254578423076e+00 -3.382142899223254062e+00
8.849556770675475192e+00 -3.362993971152034689e+00
8.930007286772523756e+00 -3.347448837161863811e+00
9.010457802869574095e+00 -3.352400062765350963e+00
9.090908318966622659e+00 -3.376402543793759481e+00
9.171358835063672998e+00 -3.405211738255300880e+00
9.251809351160723338e+00 -3.414035938804306447e+00
9.332259867257773678e+00 -3.405815757604145233e+00
9.412710383354822241e+00 -3.409773882927733535e+00
9.493160899451872581e+00 -3.396087105643826209e+00
9.573611415548921144e+00 -3.394994477977153480e+00
9.654061931645971484e+00 -3.414062432915047296e+00
9.734512447743021823e+00 -3.433800411316773715e+00
9.814962963840072163e+00 -3.433428398760940414e+00
9.895413479937120727e+00 -3.441077188690523148e+00
9.975863996034171066e+00 -3.450751992439432314e+00
1.005631451213121963e+01 -3.470047568872671739e+00
1.013676502822827175e+01 -3.480851521225073686e+00
1.021721554432532031e+01 -3.456378746470292640e+00
1.029766606042237065e+01 -3.446748421405943841e+00
