0.000000000000000000e+00 -1.549019599857431873e-01
8.045051609704977069e-02 -1.958993381440571058e-01
1.609010321940995414e-01 -5.266940796557429971e-01
2.413515482911492982e-01 -1.357189200316622379e+00
3.218020643881990828e-01 -1.968132281166657283e+00
4.022525804852488118e-01 -2.521812662968735186e+00
4.827030965822985964e-01 -2.957364547091096529e+00
5.631536126793483810e-01 -3.150748843823558243e+00
6.436041287763981655e-01 -3.345844873706479206e+00
7.240546448734478391e-01 -3.535003069962675326e+00
8.045051609704976237e-01 -3.688096319729153638e+00
8.849556770675472972e-01 -3.714075545843266379e+00
9.654061931645971928e-01 -3.733665045801955351e+00
1.045856709261647088e+00 -3.818440996497196593e+00
1.126307225358696762e+00 -3.932947296057410558e+00
1.206757741455746435e+00 -3.983436991684436101e+00
1.287208257552796331e+00 -3.973658320190600168e+00
1.367658773649846005e+00 -3.858290552724388256e+00
1.448109289746895678e+00 -3.721149207786608848e+00
1.528559805843945352e+00 -3.606143534688999175e+00
1.609010321940995247e+00 -3.546260890538189159e+00
1.689460838038045143e+00 -3.452020787876106667e+00
1.769911354135094594e+00 -3.370865351012282130e+00
1.850361870232144490e+00 -3.327750449616751816e+00
1.930812386329194386e+00 -3.269368636699248931e+00
2.011262902426244281e+00 -3.202005097090489194e+00
2.091713418523294177e+00 -3.170470322881215886e+00
2.172163934620343628e+00 -3.162409914268978994e+00
2.252614450717393524e+00 -3.118099777062681266e+00
2.333064966814443419e+00 -3.078791258912654705e+00
2.413515482911492871e+00 -3.084843389383626455e+00
2.493965999008542767e+00 -3.120468109404995971e+00
2.574416515105592662e+00 -3.176427264413683282e+00
2.654867031202642558e+00 -3.204518098043591667e+00
2.735317547299692009e+00 -3.234179264281867638e+00
2.815768063396741905e+00 -3.286221236783167576e+00
2.896218579493791356e+00 -3.307110182485969663e+00
2.976669095590841252e+00 -3.288739631368001959e+00
3.057119611687890703e+00 -3.294843146342335771e+00
3.137570127784940599e+00 -3.302731525069543927e+00
3.218020643881990495e+00 -3.277855810210355436e+00
3.298471159979039946e+00 -3.224685340296940872e+00
3.378921676076090286e+00 -3.164141584169894550e+00
3.459372192173139737e+00 -3.148787442522261948e+00
3.539822708270189189e+00 -3.152397814174408897e+00
3.620273224367239528e+00 -3.160315036527803212e+00
3.700723740464288980e+00 -3.136249585067071077e+00
3.781174256561339320e+00 -3.139000412452711331e+00
3.861624772658388771e+00 -3.157936841830795149e+00
3.942075288755438223e+00 -3.179910422195474151e+00
4.022525804852488562e+00 -3.227047076694860905e+00
4.102976320949538014e+00 -3.255602272840601774e+00
4.183426837046588354e+00 -3.239671853037555671e+00
4.263877353143637805e+00 -3.227220068015714372e+00
4.344327869240687257e+00 -3.246437018432580590e+00
4.424778385337737596e+00 -3.236370972923422684e+00
4.505228901434787048e+00 -3.233218330352153558e+00
4.585679417531836499e+00 -3.230378213354476724e+00
4.666129933628886839e+00 -3.245321134829697751e+00
4.746580449725936290e+00 -3.252749525876948766e+00
4.827030965822985742e+00 -3.248167034393310892e+00
4.907481481920036082e+00 -3.262914406158836211e+00
4.987931998017085533e+00 -3.268195670840525757e+00
5.068382514114135873e+00 -3.241385880647430717e+00
5.148833030211185324e+00 -3.225795363706318142e+00
5.229283546308234776e+00 -3.257485789295753165e+00
5.309734062405285115e+00 -3.302327726790128093e+00
5.390184578502334567e+00 -3.338237381617497057e+00
5.470635094599384018e+00 -3.322132548498057059e+00
5.551085610696433470e+00 -3.271493755164267991e+00
5.631536126793483810e+00 -3.239857711725203870e+00
5.711986642890533261e+00 -3.248927549303868734e+00
5.792437158987582713e+00 -3.284255614823614611e+00
5.872887675084633052e+00 -3.307681762589818941e+00
5.953338191181682504e+00 -3.309538896501692307e+00
6.033788707278731955e+00 -3.311289808688045344e+00
6.114239223375781407e+00 -3.296198160434767210e+00
6.194689739472831747e+00 -3.301342145209195333e+00
6.275140255569881198e+00 -3.295102141346004210e+00
6.355590771666931538e+00 -3.279276797116532194e+00
6.436041287763980989e+00 -3.281003285007138004e+00
6.516491803861030441e+00 -3.296765744879329496e+00
6.596942319958079892e+00 -3.313606647845614539e+00
6.677392836055131120e+00 -3.314659791719963611e+00
6.757843352152180572e+00 -3.293548665552195054e+00
6.838293868249230023e+00 -3.278101888777454231e+00
6.918744384346279475e+00 -3.283752715614675299e+00
6.999194900443328926e+00 -3.291850839855731348e+00
7.079645416540378378e+00 -3.294707144401783694e+00
7.160095932637429605e+00 -3.299024898534821837e+00
7.240546448734479057e+00 -3.319498533358767212e+00
7.320996964831528508e+00 -3.342870924907249908e+00
7.401447480928577960e+00 -3.339549014844485519e+00
7.481897997025627411e+00 -3.350763026262929323e+00
7.562348513122678639e+00 -3.354131481246563240e+00
7.642799029219728091e+00 -3.330203437278075995e+00
7.723249545316777542e+00 -3.313625181376596895e+00
7.803700061413826994e+00 -3.317555026929456030e+00
7.884150577510876445e+00 -3.338341130811634194e+00
7.964601093607927673e+00 -3.333130998862973371e+00
8.045051609704977125e+00 -3.340766465673444152e+00
8.125502125802025688e+00 -3.366282916350622934e+00
8.205952641899076028e+00 -3.389477528242978543e+00
8.286403157996124591e+00 -3.380021150486950621e+00
8.366853674093176707e+00 -3.345410994715104280e+00
8.447304190190225270e+00 -3.334864462901083293e+00
8.527754706287275610e+00 -3.324018932037082763e+00
8.608205222384324173e+00 -3.340284623301403855e+00
8.688655738481374513e+00 -3.366513794028482831e+00
8.769106254578423076e+00 -3.370887985879431170e+00
8.849556770675475192e+00 -3.349594415071544429e+00
8.930007286772523756e+00 -3.344903268349706860e+00
9.010457802869574095e+00 -3.356143647867671387e+00
9.090908318966622659e+00 -3.362202496162194798e+00
9.171358835063672998e+00 -3.390401932282271602e+00
9.251809351160723338e+00 -3.417616201224875638e+00
9.332259867257773678e+00 -3.416302440060068335e+00
9.412710383354822241e+00 -3.390861196608744965e+00
9.493160899451872581e+00 -3.384265111280690963e+00
9.573611415548921144e+00 -3.370400089973469626e+00
9.654061931645971484e+00 -3.373092197646145873e+00
9.734512447743021823e+00 -3.388375160679629072e+00
9.814962963840072163e+00 -3.393906279501651913e+00
9.895413479937120727e+00 -3.377750338593977553e+00
9.975863996034171066e+00 -3.356149793748821164e+00
1.005631451213121963e+01 -3.349024813348981500e+00
1.013676502822827175e+01 -3.365045433402616304e+00
1.021721554432532031e+01 -3.389091598704717878e+00
1.029766606042237065e+01 -3.399019988921829327e+00
