0.000000000000000000e+00 -1.549019599857431873e-01
8.045051609704977069e-02 -1.999185107287776708e-01
1.609010321940995414e-01 -5.762197403892308500e-01
2.413515482911492982e-01 -2.451700736568152017e+00
3.218020643881990828e-01 -3.594409592093849692e+00
4.022525804852488118e-01 -3.285181822804669860e+00
4.827030965822985964e-01 -3.291440225239755879e+00
5.631536126793483810e-01 -3.459923210964728657e+00
6.436041287763981655e-01 -3.550178796257593916e+00
7.240546448734478391e-01 -3.515454092734100922e+00
8.045051609704976237e-01 -3.506603409869433641e+00
8.849556770675472972e-01 -3.588419507946845055e+00
9.654061931645971928e-01 -3.665772469068067974e+00
1.045856709261647088e+00 -3.669625244558202493e+00
1.126307225358696762e+00 -3.658331635915026414e+00
1.206757741455746435e+00 -3.672336295596150713e+00
1.287208257552796331e+00 -3.701085874392742614e+00
1.367658773649846005e+00 -3.661626515946951432e+00
1.448109289746895678e+00 -3.622945507006147370e+00
1.528559805843945352e+00 -3.646568485764917433e+00
1.609010321940995247e+00 -3.638563057977499682e+00
1.689460838038045143e+00 -3.578033455446770095e+00
1.769911354135094594e+00 -3.540618969919448578e+00
1.850361870232144490e+00 -3.521459056967906953e+00
1.930812386329194386e+00 -3.426020809731229910e+00
2.011262902426244281e+00 -3.331914622945452376e+00
2.091713418523294177e+00 -3.260782994573590443e+00
2.172163934620343628e+00 -3.217398623746585695e+00
2.252614450717393524e+00 -3.218762915537970226e+00
2.333064966814443419e+00 -3.251089819686170390e+00
2.413515482911492871e+00 -3.204933892284813179e+00
2.493965999008542767e+00 -3.212626532224162723e+00
2.574416515105592662e+00 -3.250254997364907084e+00
2.654867031202642558e+00 -3.248535078902009765e+00
2.735317547299692009e+00 -3.245546636653986017e+00
2.815768063396741905e+00 -3.252343224714707937e+00
2.896218579493791356e+00 -3.277739720676675184e+00
2.976669095590841252e+00 -3.310262169451111181e+00
3.057119611687890703e+00 -3.359379773873080399e+00
3.137570127784940599e+00 -3.390109368562447489e+00
3.218020643881990495e+00 -3.387254058970976089e+00
3.298471159979039946e+00 -3.370470762047653945e+00
3.378921676076090286e+00 -3.355337424813411129e+00
3.459372192173139737e+00 -3.366515639028412554e+00
3.539822708270189189e+00 -3.351618085955695214e+00
3.620273224367239528e+00 -3.340203280339771208e+00
3.700723740464288980e+00 -3.332280738089203886e+00
3.781174256561339320e+00 -3.288009113689750240e+00
3.861624772658388771e+00 -3.239104902029634747e+00
3.942075288755438223e+00 -3.230808737877272296e+00
4.022525804852488562e+00 -3.234002028058215128e+00
4.102976320949538014e+00 -3.265081323498634447e+00
4.183426837046588354e+00 -3.304503125792464413e+00
4.263877353143637805e+00 -3.321901628910849169e+00
4.344327869240687257e+00 -3.323744789291990909e+00
4.424778385337737596e+00 -3.328263528026195850e+00
4.505228901434787048e+00 -3.344438169685028051e+00
4.585679417531836499e+00 -3.345027658027258433e+00
4.666129933628886839e+00 -3.330637311632531627e+00
4.746580449725936290e+00 -3.296413003625804361e+00
4.827030965822985742e+00 -3.277965531274950273e+00
4.907481481920036082e+00 -3.288532361984032981e+00
4.987931998017085533e+00 -3.305005959304170737e+00
5.068382514114135873e+00 -3.275898603859241032e+00
5.148833030211185324e+00 -3.245568448119521054e+00
5.229283546308234776e+00 -3.243372169713016007e+00
5.309734062405285115e+00 -3.281518190567067617e+00
5.390184578502334567e+00 -3.323404599649899538e+00
5.470635094599384018e+00 -3.360327869515613575e+00
5.551085610696433470e+00 -3.357328360940309064e+00
5.631536126793483810e+00 -3.328322681841324737e+00
5.711986642890533261e+00 -3.315347106920517817e+00
5.792437158987582713e+00 -3.347070191448211052e+00
5.872887675084633052e+00 -3.377060465872185446e+00
5.953338191181682504e+00 -3.376481520496839916e+00
6.033788707278731955e+00 -3.342720429601905074e+00
6.114239223375781407e+00 -3.338934871950045569e+00
6.194689739472831747e+00 -3.351560745928944041e+00
6.275140255569881198e+00 -3.363035138436035520e+00
6.355590771666931538e+00 -3.372573998229294823e+00
6.436041287763980989e+00 -3.401346755772435504e+00
6.516491803861030441e+00 -3.406596512309006286e+00
6.596942319958079892e+00 -3.376558375152719282e+00
6.677392836055131120e+00 -3.366001984863582486e+00
6.757843352152180572e+00 -3.398979993823992185e+00
6.838293868249230023e+00 -3.460488314321762182e+00
6.918744384346279475e+00 -3.478963166272446284e+00
6.999194900443328926e+00 -3.444695578013797554e+00
7.079645416540378378e+00 -3.438879396213798678e+00
7.160095932637429605e+00 -3.449728137941411976e+00
7.240546448734479057e+00 -3.441228877053509994e+00
7.320996964831528508e+00 -3.418962684997733259e+00
7.401447480928577960e+00 -3.402875861920445555e+00
7.481897997025627411e+00 -3.419979063789607920e+00
7.562348513122678639e+00 -3.440433993772667343e+00
7.642799029219728091e+00 -3.440491514519065319e+00
7.723249545316777542e+00 -3.433206343436757457e+00
7.803700061413826994e+00 -3.420324600162913065e+00
7.884150577510876445e+00 -3.416298456111499071e+00
7.964601093607927673e+00 -3.422686939309406817e+00
8.045051609704977125e+00 -3.435332890199405576e+00
8.125502125802025688e+00 -3.441296091703095694e+00
8.205952641899076028e+00 -3.451270039513746113e+00
8.286403157996124591e+00 -3.442860969207533817e+00
8.366853674093176707e+00 -3.427331842954936647e+00
8.447304190190225270e+00 -3.426094963380036162e+00
8.527754706287275610e+00 -3.427648322795683100e+00
8.608205222384324173e+00 -3.423888567828971219e+00
8.688655738481374513e+00 -3.412111959442528875e+00
8.769106254578423076e+00 -3.409869838747330739e+00
8.849556770675475192e+00 -3.406049053315995057e+00
8.930007286772523756e+00 -3.412157306690485115e+00
9.010457802869574095e+00 -3.423452316686049990e+00
9.090908318966622659e+00 -3.447389035263321855e+00
9.171358835063672998e+00 -3.486106197814730745e+00
9.251809351160723338e+00 -3.491369840868234320e+00
9.332259867257773678e+00 -3.479208656715460535e+00
9.412710383354822241e+00 -3.475392568661071824e+00
9.493160899451872581e+00 -3.483026555528666357e+00
9.573611415548921144e+00 -3.478787780227998727e+00
9.654061931645971484e+00 -3.495100899113026127e+00
9.734512447743021823e+00 -3.535724303317711925e+00
9.814962963840072163e+00 -3.583759787969119426e+00
9.895413479937120727e+00 -3.571932203812847817e+00
9.975863996034171066e+00 -3.537157293615753595e+00
1.005631451213121963e+01 -3.516477465314777895e+00
1.013676502822827175e+01 -3.507532042492737201e+00
1.021721554432532031e+01 -3.513845994700109721e+00
1.029766606042237065e+01 -3.517969863724502488e+00
