0.000000000000000000e+00 -1.549019599857431873e-01
8.045051609704977069e-02 -2.054804232470552050e-01
1.609010321940995414e-01 -6.394810862722556388e-01
2.413515482911492982e-01 -2.806028219829916903e+00
3.218020643881990828e-01 -3.670728102880949972e+00
4.022525804852488118e-01 -3.367875970710686673e+00
4.827030965822985964e-01 -3.313750866959171759e+00
5.631536126793483810e-01 -3.345638543897253570e+00
6.436041287763981655e-01 -3.343429916007580882e+00
7.240546448734478391e-01 -3.374592010092738459e+00
8.045051609704976237e-01 -3.460820759271068692e+00
8.849556770675472972e-01 -3.539776855910207853e+00
9.654061931645971928e-01 -3.561238034606994951e+00
1.045856709261647088e+00 -3.609400605397207418e+00
1.126307225358696762e+00 -3.689514049134464457e+00
1.206757741455746435e+00 -3.690415043667687911e+00
1.287208257552796331e+00 -3.602438543929256110e+00
1.367658773649846005e+00 -3.512648722309257732e+00
1.448109289746895678e+00 -3.501871037838236056e+00
1.528559805843945352e+00 -3.528494278432647402e+00
1.609010321940995247e+00 -3.511988773111283990e+00
1.689460838038045143e+00 -3.441733539378430518e+00
1.769911354135094594e+00 -3.401672513057793168e+00
1.850361870232144490e+00 -3.395783493609652037e+00
1.930812386329194386e+00 -3.413921939932263339e+00
2.011262902426244281e+00 -3.357212707004064267e+00
2.091713418523294177e+00 -3.265264508664368570e+00
2.172163934620343628e+00 -3.228812524064211598e+00
2.252614450717393524e+00 -3.253310134369686413e+00
2.333064966814443419e+00 -3.279444341230199900e+00
2.413515482911492871e+00 -3.284878562725854323e+00
2.493965999008542767e+00 -3.337956165991272428e+00
2.574416515105592662e+00 -3.413260058996309798e+00
2.654867031202642558e+00 -3.455072831753364326e+00
2.735317547299692009e+00 -3.412865795524095081e+00
2.815768063396741905e+00 -3.388107581243782640e+00
2.896218579493791356e+00 -3.390519715288705882e+00
2.976669095590841252e+00 -3.390896988038823778e+00
3.057119611687890703e+00 -3.351812127940737795e+00
3.137570127784940599e+00 -3.324940858107751307e+00
3.218020643881990495e+00 -3.360400534798026584e+00
3.298471159979039946e+00 -3.401892219561648112e+00
3.378921676076090286e+00 -3.407930925865552574e+00
3.459372192173139737e+00 -3.342677276073068082e+00
3.539822708270189189e+00 -3.303778315640510055e+00
3.620273224367239528e+00 -3.300889026204349541e+00
3.700723740464288980e+00 -3.315063112932927769e+00
3.781174256561339320e+00 -3.299703511499598285e+00
3.861624772658388771e+00 -3.270128619849048235e+00
3.942075288755438223e+00 -3.253577404770006343e+00
4.022525804852488562e+00 -3.261758337910486194e+00
4.102976320949538014e+00 -3.304769792667028305e+00
4.183426837046588354e+00 -3.354904114172778673e+00
4.263877353143637805e+00 -3.378354787839199069e+00
4.344327869240687257e+00 -3.372682961385972344e+00
4.424778385337737596e+00 -3.355227381818423726e+00
4.505228901434787048e+00 -3.329823776685350012e+00
4.585679417531836499e+00 -3.300069254475906266e+00
4.666129933628886839e+00 -3.296378582235181653e+00
4.746580449725936290e+00 -3.322601639180613020e+00
4.827030965822985742e+00 -3.366937179106319622e+00
4.907481481920036082e+00 -3.383502311092176917e+00
4.987931998017085533e+00 -3.400411714560511722e+00
5.068382514114135873e+00 -3.430084640861997158e+00
5.148833030211185324e+00 -3.422505771161971300e+00
5.229283546308234776e+00 -3.394966036129785092e+00
5.309734062405285115e+00 -3.373038170964737237e+00
5.390184578502334567e+00 -3.378553231693363301e+00
5.470635094599384018e+00 -3.387066940182892338e+00
5.551085610696433470e+00 -3.357836141468288904e+00
5.631536126793483810e+00 -3.348928971036158941e+00
5.711986642890533261e+00 -3.388692779579467462e+00
5.792437158987582713e+00 -3.413937020528825528e+00
5.872887675084633052e+00 -3.403960403014652414e+00
5.953338191181682504e+00 -3.403984268550993786e+00
6.033788707278731955e+00 -3.387007982984961085e+00
6.114239223375781407e+00 -3.359463923006559494e+00
6.194689739472831747e+00 -3.344428653831401643e+00
6.275140255569881198e+00 -3.347637170280971297e+00
6.355590771666931538e+00 -3.343581957289193163e+00
6.436041287763980989e+00 -3.360019082067423390e+00
6.516491803861030441e+00 -3.375689746707512651e+00
6.596942319958079892e+00 -3.382141821619747191e+00
6.677392836055131120e+00 -3.386238894413685419e+00
6.757843352152180572e+00 -3.382706456949509999e+00
6.838293868249230023e+00 -3.379309538064032559e+00
6.918744384346279475e+00 -3.392933586184117445e+00
6.999194900443328926e+00 -3.429779621687235380e+00
7.079645416540378378e+00 -3.444229255138401058e+00
7.160095932637429605e+00 -3.434405317790333090e+00
7.240546448734479057e+00 -3.431186960292551547e+00
7.320996964831528508e+00 -3.447148494900141635e+00
7.401447480928577960e+00 -3.458504404521914655e+00
7.481897997025627411e+00 -3.432959518901292029e+00
7.562348513122678639e+00 -3.396183851039576762e+00
7.642799029219728091e+00 -3.367041816479739769e+00
7.723249545316777542e+00 -3.395170818719821515e+00
7.803700061413826994e+00 -3.433259753657622149e+00
7.884150577510876445e+00 -3.436345014718287683e+00
7.964601093607927673e+00 -3.444314419814110462e+00
8.045051609704977125e+00 -3.473942251441481499e+00
8.125502125802025688e+00 -3.487668836339949507e+00
8.205952641899076028e+00 -3.478156483981677205e+00
8.286403157996124591e+00 -3.469382847260725100e+00
8.366853674093176707e+00 -3.469326386128306350e+00
8.447304190190225270e+00 -3.459856536271036731e+00
8.527754706287275610e+00 -3.476944303695511440e+00
8.608205222384324173e+00 -3.479783974402184565e+00
8.688655738481374513e+00 -3.476412460235799529e+00
8.769106254578423076e+00 -3.462390800370275024e+00
8.849556770675475192e+00 -3.449640012246129039e+00
8.930007286772523756e+00 -3.444614302455037080e+00
9.010457802869574095e+00 -3.455347803020077713e+00
9.090908318966622659e+00 -3.446471906111981731e+00
9.171358835063672998e+00 -3.440224454418591815e+00
9.251809351160723338e+00 -3.450512768619472315e+00
9.332259867257773678e+00 -3.473830244766751729e+00
9.412710383354822241e+00 -3.488289984650475350e+00
9.493160899451872581e+00 -3.483870117718102843e+00
9.573611415548921144e+00 -3.482032593564965417e+00
9.654061931645971484e+00 -3.514865614066872812e+00
9.734512447743021823e+00 -3.542960705542037569e+00
9.814962963840072163e+00 -3.570161381534416201e+00
9.895413479937120727e+00 -3.561485356384607837e+00
9.975863996034171066e+00 -3.543615411781705138e+00
1.005631451213121963e+01 -3.542353934697953122e+00
1.013676502822827175e+01 -3.549686945536185245e+00
1.021721554432532031e+01 -3.558747000368162272e+00
1.029766606042237065e+01 -3.549174468125413373e+00
