0.000000000000000000e+00 -1.549019599857431873e-01
8.045051609704977069e-02 -1.936494459229538279e-01
1.609010321940995414e-01 -5.783522987103913993e-01
2.413515482911492982e-01 -2.306322644593954863e+00
3.218020643881990828e-01 -3.548365959297517858e+00
4.022525804852488118e-01 -3.426906446439687670e+00
4.827030965822985964e-01 -3.290261781961499210e+00
5.631536126793483810e-01 -3.309029583349481829e+00
6.436041287763981655e-01 -3.465643764617098110e+00
7.240546448734478391e-01 -3.528987243236023641e+00
8.045051609704976237e-01 -3.482157499366335784e+00
8.849556770675472972e-01 -3.488415805561317029e+00
9.654061931645971928e-01 -3.558822563554608021e+00
1.045856709261647088e+00 -3.654273103195974759e+00
1.126307225358696762e+00 -3.725143810220636009e+00
1.206757741455746435e+00 -3.698962356293800102e+00
1.287208257552796331e+00 -3.601839960748026037e+00
1.367658773649846005e+00 -3.542275562954404489e+00
1.448109289746895678e+00 -3.533348440968400617e+00
1.528559805843945352e+00 -3.507243076857890607e+00
1.609010321940995247e+00 -3.501131215136251029e+00
1.689460838038045143e+00 -3.488703189999694754e+00
1.769911354135094594e+00 -3.452646197124707328e+00
1.850361870232144490e+00 -3.395111305067560092e+00
1.930812386329194386e+00 -3.354594345953634260e+00
2.011262902426244281e+00 -3.315672247671166417e+00
2.091713418523294177e+00 -3.274451686620383661e+00
2.172163934620343628e+00 -3.292771634250528656e+00
2.252614450717393524e+00 -3.307243687089638673e+00
2.333064966814443419e+00 -3.300774422972066802e+00
2.413515482911492871e+00 -3.315573279181463384e+00
2.493965999008542767e+00 -3.342017009715131159e+00
2.574416515105592662e+00 -3.310625103870403318e+00
2.654867031202642558e+00 -3.289425006294647957e+00
2.735317547299692009e+00 -3.258392441648818583e+00
2.815768063396741905e+00 -3.268153658628631941e+00
2.896218579493791356e+00 -3.288193211036603447e+00
2.976669095590841252e+00 -3.321640065780252726e+00
3.057119611687890703e+00 -3.320084980920149142e+00
3.137570127784940599e+00 -3.298845323969219034e+00
3.218020643881990495e+00 -3.251558584371379457e+00
3.298471159979039946e+00 -3.225698529999042830e+00
3.378921676076090286e+00 -3.253552634672659760e+00
3.459372192173139737e+00 -3.310198769296741172e+00
3.539822708270189189e+00 -3.342438813285198762e+00
3.620273224367239528e+00 -3.310738867567368793e+00
3.700723740464288980e+00 -3.265438084212395786e+00
3.781174256561339320e+00 -3.272274819202483531e+00
3.861624772658388771e+00 -3.317916621411139300e+00
3.942075288755438223e+00 -3.362642730334796770e+00
4.022525804852488562e+00 -3.416739935092845126e+00
4.102976320949538014e+00 -3.446417057210401147e+00
4.183426837046588354e+00 -3.406899998592001211e+00
4.263877353143637805e+00 -3.364533169791430023e+00
4.344327869240687257e+00 -3.349676997128100187e+00
4.424778385337737596e+00 -3.315490182633066052e+00
4.505228901434787048e+00 -3.285905252523911635e+00
4.585679417531836499e+00 -3.302186707696613155e+00
4.666129933628886839e+00 -3.334112568777230834e+00
4.746580449725936290e+00 -3.368788479995074248e+00
4.827030965822985742e+00 -3.372156199070019511e+00
4.907481481920036082e+00 -3.372322847571570303e+00
4.987931998017085533e+00 -3.360501893695776232e+00
5.068382514114135873e+00 -3.329369885227452475e+00
5.148833030211185324e+00 -3.313159575176763738e+00
5.229283546308234776e+00 -3.336480516218513159e+00
5.309734062405285115e+00 -3.392432942876178359e+00
5.390184578502334567e+00 -3.421265294113612576e+00
5.470635094599384018e+00 -3.405312429753152514e+00
5.551085610696433470e+00 -3.357758241301433078e+00
5.631536126793483810e+00 -3.332634550397909123e+00
5.711986642890533261e+00 -3.349122696100223617e+00
5.792437158987582713e+00 -3.349062902956344345e+00
5.872887675084633052e+00 -3.326428013599681766e+00
5.953338191181682504e+00 -3.341714338547403518e+00
6.033788707278731955e+00 -3.374589327609169853e+00
6.114239223375781407e+00 -3.370995896648683043e+00
6.194689739472831747e+00 -3.358876193294835666e+00
6.275140255569881198e+00 -3.386094872473422335e+00
6.355590771666931538e+00 -3.391058365798225616e+00
6.436041287763980989e+00 -3.395264728390688713e+00
6.516491803861030441e+00 -3.390710092630881078e+00
6.596942319958079892e+00 -3.378901687848574031e+00
6.677392836055131120e+00 -3.380298164882431955e+00
6.757843352152180572e+00 -3.368518013127977273e+00
6.838293868249230023e+00 -3.332986841107095088e+00
6.918744384346279475e+00 -3.308503321504858263e+00
6.999194900443328926e+00 -3.330529051855935396e+00
7.079645416540378378e+00 -3.369874817285384516e+00
7.160095932637429605e+00 -3.373040067230265837e+00
7.240546448734479057e+00 -3.350579681087498152e+00
7.320996964831528508e+00 -3.338931652243670278e+00
7.401447480928577960e+00 -3.327855780062261459e+00
7.481897997025627411e+00 -3.330677165196963330e+00
7.562348513122678639e+00 -3.364923789125521925e+00
7.642799029219728091e+00 -3.403090740842803719e+00
7.723249545316777542e+00 -3.424932105269295146e+00
7.803700061413826994e+00 -3.436122240503760139e+00
7.884150577510876445e+00 -3.438386722858710165e+00
7.964601093607927673e+00 -3.439788214017087675e+00
8.045051609704977125e+00 -3.429207246094851946e+00
8.125502125802025688e+00 -3.424082966392882899e+00
8.205952641899076028e+00 -3.395097505255790793e+00
8.286403157996124591e+00 -3.377727627487291162e+00
8.366853674093176707e+00 -3.388170149955162636e+00
8.447304190190225270e+00 -3.405765499865520685e+00
8.527754706287275610e+00 -3.432878062657966467e+00
8.608205222384324173e+00 -3.469463532099870129e+00
8.688655738481374513e+00 -3.457614573564692151e+00
8.769106254578423076e+00 -3.436308636852885456e+00
8.849556770675475192e+00 -3.463472159394576089e+00
8.930007286772523756e+00 -3.463855605759857070e+00
9.010457802869574095e+00 -3.443197077275182316e+00
9.090908318966622659e+00 -3.438725110057999856e+00
9.171358835063672998e+00 -3.467867117114434183e+00
9.251809351160723338e+00 -3.509905468342959356e+00
9.332259867257773678e+00 -3.515452449711598870e+00
9.412710383354822241e+00 -3.498868123857048484e+00
9.493160899451872581e+00 -3.486161522794337220e+00
9.573611415548921144e+00 -3.487605734083425446e+00
9.654061931645971484e+00 -3.472021855913782762e+00
9.734512447743021823e+00 -3.452876980923175854e+00
9.814962963840072163e+00 -3.471781198383359524e+00
9.895413479937120727e+00 -3.523406810685372648e+00
9.975863996034171066e+00 -3.539677893524603380e+00
1.005631451213121963e+01 -3.535824857981296088e+00
1.013676502822827175e+01 -3.532086355626419927e+00
1.021721554432532031e+01 -3.516928239555274782e+00
1.029766606042237065e+01 -3.480982443143501026e+00
