0.000000000000000000e+00 -1.549019599857431873e-01
8.045051609704977069e-02 -2.083863914283714536e-01
1.609010321940995414e-01 -5.563721108677540661e-01
2.413515482911492982e-01 -1.190502235317969282e+00
3.218020643881990828e-01 -1.193886525670884824e+00
4.022525804852488118e-01 -1.205363572148904883e+00
4.827030965822985964e-01 -1.466334774331220947e+00
5.631536126793483810e-01 -1.787993165859907529e+00
6.436041287763981655e-01 -2.107581782603615839e+00
7.240546448734478391e-01 -2.270568013864872281e+00
8.045051609704976237e-01 -2.481608695380730811e+00
8.849556770675472972e-01 -2.695817133212064398e+00
9.654061931645971928e-01 -2.804524683008886132e+00
1.045856709261647088e+00 -2.836395284826516594e+00
1.126307225358696762e+00 -2.838336311783373755e+00
1.206757741455746435e+00 -2.819765438167698424e+00
1.287208257552796331e+00 -2.792615139923184664e+00
1.367658773649846005e+00 -2.794382646764959510e+00
1.448109289746895678e+00 -2.798441824440522030e+00
1.528559805843945352e+00 -2.801384726777466749e+00
1.609010321940995247e+00 -2.847956358149293266e+00
1.689460838038045143e+00 -2.886779725392679907e+00
1.769911354135094594e+00 -2.850297446349565611e+00
1.850361870232144490e+00 -2.783560722977060031e+00
1.930812386329194386e+00 -2.772730510711150842e+00
2.011262902426244281e+00 -2.761538905616010897e+00
2.091713418523294177e+00 -2.725724702805084387e+00
2.172163934620343628e+00 -2.713312599381486390e+00
2.252614450717393524e+00 -2.698160351521827316e+00
2.333064966814443419e+00 -2.661139437785519757e+00
2.413515482911492871e+00 -2.636906437705104356e+00
2.493965999008542767e+00 -2.617949299980859568e+00
2.574416515105592662e+00 -2.634401424785375312e+00
2.654867031202642558e+00 -2.620883405223565443e+00
2.735317547299692009e+00 -2.606577909616327293e+00
2.815768063396741905e+00 -2.624602367341475340e+00
2.896218579493791356e+00 -2.653021161443529508e+00
2.976669095590841252e+00 -2.653990556342128659e+00
3.057119611687890703e+00 -2.645376486390036419e+00
3.137570127784940599e+00 -2.682851660679454131e+00
3.218020643881990495e+00 -2.731416445755596722e+00
3.298471159979039946e+00 -2.753887324193983410e+00
3.378921676076090286e+00 -2.762991049003070465e+00
3.459372192173139737e+00 -2.727007346631265428e+00
3.539822708270189189e+00 -2.680093354965846331e+00
3.620273224367239528e+00 -2.681264570331444386e+00
3.700723740464288980e+00 -2.705391395361649742e+00
3.781174256561339320e+00 -2.693399412997127929e+00
3.861624772658388771e+00 -2.649373479551237587e+00
3.942075288755438223e+00 -2.638589862415661624e+00
4.022525804852488562e+00 -2.631462760147350810e+00
4.102976320949538014e+00 -2.629645731569222544e+00
4.183426837046588354e+00 -2.632208260359309548e+00
4.263877353143637805e+00 -2.644316476570496732e+00
4.344327869240687257e+00 -2.632348964905716571e+00
4.424778385337737596e+00 -2.628126833904496529e+00
4.505228901434787048e+00 -2.630018564867111497e+00
4.585679417531836499e+00 -2.628005294885622067e+00
4.666129933628886839e+00 -2.650773380593156592e+00
4.746580449725936290e+00 -2.675842880650107780e+00
4.827030965822985742e+00 -2.652344047689796813e+00
4.907481481920036082e+00 -2.629407008852047145e+00
4.987931998017085533e+00 -2.635719458158826800e+00
5.068382514114135873e+00 -2.640589454305294570e+00
5.148833030211185324e+00 -2.636142808044471320e+00
5.229283546308234776e+00 -2.651252040928380627e+00
5.309734062405285115e+00 -2.697439767586684578e+00
5.390184578502334567e+00 -2.757245796312609798e+00
5.470635094599384018e+00 -2.755217389434731601e+00
5.551085610696433470e+00 -2.712064999757213268e+00
5.631536126793483810e+00 -2.688498570531411058e+00
5.711986642890533261e+00 -2.680694857872417014e+00
5.792437158987582713e+00 -2.689760609523414558e+00
5.872887675084633052e+00 -2.705209675094183197e+00
5.953338191181682504e+00 -2.712028355952649683e+00
6.033788707278731955e+00 -2.716560879632923697e+00
6.114239223375781407e+00 -2.725360578769390862e+00
6.194689739472831747e+00 -2.714326367476248336e+00
6.275140255569881198e+00 -2.679420118766483228e+00
6.355590771666931538e+00 -2.672449900276084200e+00
6.436041287763980989e+00 -2.658674602586522884e+00
6.516491803861030441e+00 -2.637584083786010059e+00
6.596942319958079892e+00 -2.654325057395348963e+00
6.677392836055131120e+00 -2.670570810108786386e+00
6.757843352152180572e+00 -2.673449861861987742e+00
6.838293868249230023e+00 -2.678215438333822362e+00
6.918744384346279475e+00 -2.674580615188488331e+00
6.999194900443328926e+00 -2.670372769124293555e+00
7.079645416540378378e+00 -2.688566363461001973e+00
7.160095932637429605e+00 -2.721590264795350045e+00
7.240546448734479057e+00 -2.725094723945715280e+00
7.320996964831528508e+00 -2.707294510059142567e+00
7.401447480928577960e+00 -2.701183436644859270e+00
7.481897997025627411e+00 -2.697885028975238075e+00
7.562348513122678639e+00 -2.671182109119589754e+00
7.642799029219728091e+00 -2.653174634231895812e+00
7.723249545316777542e+00 -2.683712391530602481e+00
7.803700061413826994e+00 -2.712578543708571654e+00
7.884150577510876445e+00 -2.705396956854937862e+00
7.964601093607927673e+00 -2.682641692002069256e+00
8.045051609704977125e+00 -2.694960459625108662e+00
8.125502125802025688e+00 -2.717369569217512826e+00
8.205952641899076028e+00 -2.723429506933786381e+00
8.286403157996124591e+00 -2.732865496346359002e+00
8.366853674093176707e+00 -2.746288485174451122e+00
8.447304190190225270e+00 -2.759126051275852198e+00
8.527754706287275610e+00 -2.762908396721490245e+00
8.608205222384324173e+00 -2.772917230348589168e+00
8.688655738481374513e+00 -2.802348924217629822e+00
8.769106254578423076e+00 -2.827635623670454290e+00
8.849556770675475192e+00 -2.834290140153636894e+00
8.930007286772523756e+00 -2.825287922466799273e+00
9.010457802869574095e+00 -2.803936908527592475e+00
9.090908318966622659e+00 -2.796275936202525347e+00
9.171358835063672998e+00 -2.799749703660685096e+00
9.251809351160723338e+00 -2.803651953495590377e+00
9.332259867257773678e+00 -2.797856037676540009e+00
9.412710383354822241e+00 -2.784774550267417936e+00
9.493160899451872581e+00 -2.772388696113926354e+00
9.573611415548921144e+00 -2.788020580824698502e+00
9.654061931645971484e+00 -2.824733454777547781e+00
9.734512447743021823e+00 -2.839685990049590103e+00
9.814962963840072163e+00 -2.841508934105213768e+00
9.895413479937120727e+00 -2.826800075818745039e+00
9.975863996034171066e+00 -2.821584571322987234e+00
1.005631451213121963e+01 -2.848244369328994718e+00
1.013676502822827175e+01 -2.899168270442191275e+00
1.021721554432532031e+01 -2.925862514803914127e+00
1.029766606042237065e+01 -2.925246124745525034e+00
