0.000000000000000000e+00 -1.549019599857431873e-01
8.045051609704977069e-02 -2.003305073238117462e-01
1.609010321940995414e-01 -5.249195889874763710e-01
2.413515482911492982e-01 -9.126630877457779789e-01
3.218020643881990828e-01 -9.604947991227389403e-01
4.022525804852488118e-01 -1.172683529433942162e+00
4.827030965822985964e-01 -1.491400980491723205e+00
5.631536126793483810e-01 -1.788991418013000434e+00
6.436041287763981655e-01 -2.007810885612351104e+00
7.240546448734478391e-01 -2.169507557037920975e+00
8.045051609704976237e-01 -2.419187657399477942e+00
8.849556770675472972e-01 -2.666143015525713533e+00
9.654061931645971928e-01 -2.766625844307362136e+00
1.045856709261647088e+00 -2.845049533473181125e+00
1.126307225358696762e+00 -2.885910009512566710e+00
1.206757741455746435e+00 -2.820430951788402307e+00
1.287208257552796331e+00 -2.762497085927489326e+00
1.367658773649846005e+00 -2.739262463779733814e+00
1.448109289746895678e+00 -2.682532888875272636e+00
1.528559805843945352e+00 -2.641126669536784544e+00
1.609010321940995247e+00 -2.653677717862620966e+00
1.689460838038045143e+00 -2.698228514380585530e+00
1.769911354135094594e+00 -2.761306244690663991e+00
1.850361870232144490e+00 -2.839123216962613938e+00
1.930812386329194386e+00 -2.839795118163831678e+00
2.011262902426244281e+00 -2.758632393457872478e+00
2.091713418523294177e+00 -2.632136434968491923e+00
2.172163934620343628e+00 -2.591688990976931617e+00
2.252614450717393524e+00 -2.619994241056795570e+00
2.333064966814443419e+00 -2.652445739926432289e+00
2.413515482911492871e+00 -2.674108788519567348e+00
2.493965999008542767e+00 -2.665887384201280685e+00
2.574416515105592662e+00 -2.644469880611070689e+00
2.654867031202642558e+00 -2.626521219015912845e+00
2.735317547299692009e+00 -2.589217789380969581e+00
2.815768063396741905e+00 -2.574702400738853481e+00
2.896218579493791356e+00 -2.591167334814850953e+00
2.976669095590841252e+00 -2.641030968455411632e+00
3.057119611687890703e+00 -2.664001150376432481e+00
3.137570127784940599e+00 -2.660901058959571408e+00
3.218020643881990495e+00 -2.666227603856836215e+00
3.298471159979039946e+00 -2.681007503316091167e+00
3.378921676076090286e+00 -2.667855053839964796e+00
3.459372192173139737e+00 -2.662276682275744211e+00
3.539822708270189189e+00 -2.635733414185785772e+00
3.620273224367239528e+00 -2.614361469672468186e+00
3.700723740464288980e+00 -2.602925014222351674e+00
3.781174256561339320e+00 -2.608518385627304426e+00
3.861624772658388771e+00 -2.644529993163759585e+00
3.942075288755438223e+00 -2.690837429881193898e+00
4.022525804852488562e+00 -2.703405858671261708e+00
4.102976320949538014e+00 -2.687068373653772380e+00
4.183426837046588354e+00 -2.663578051937826707e+00
4.263877353143637805e+00 -2.673369647367364266e+00
4.344327869240687257e+00 -2.710578599487705631e+00
4.424778385337737596e+00 -2.711446408543143338e+00
4.505228901434787048e+00 -2.684042314454262446e+00
4.585679417531836499e+00 -2.616766419198498284e+00
4.666129933628886839e+00 -2.595742173035640032e+00
4.746580449725936290e+00 -2.607910465055578442e+00
4.827030965822985742e+00 -2.619698242568916591e+00
4.907481481920036082e+00 -2.617560118156982529e+00
4.987931998017085533e+00 -2.664853768773865816e+00
5.068382514114135873e+00 -2.719114354775443498e+00
5.148833030211185324e+00 -2.738713561584689593e+00
5.229283546308234776e+00 -2.733619494570915354e+00
5.309734062405285115e+00 -2.732522800582163569e+00
5.390184578502334567e+00 -2.718423777317156897e+00
5.470635094599384018e+00 -2.706415975995549950e+00
5.551085610696433470e+00 -2.702241912596886841e+00
5.631536126793483810e+00 -2.709627850968372442e+00
5.711986642890533261e+00 -2.709706705648493141e+00
5.792437158987582713e+00 -2.700699399513178722e+00
5.872887675084633052e+00 -2.694265526672709132e+00
5.953338191181682504e+00 -2.664862447093956810e+00
6.033788707278731955e+00 -2.637804943398392776e+00
6.114239223375781407e+00 -2.646854378510558714e+00
6.194689739472831747e+00 -2.662151910087294571e+00
6.275140255569881198e+00 -2.651436196244688404e+00
6.355590771666931538e+00 -2.623676794448215777e+00
6.436041287763980989e+00 -2.630051296047777321e+00
6.516491803861030441e+00 -2.674834632359560427e+00
6.596942319958079892e+00 -2.693251433375026593e+00
6.677392836055131120e+00 -2.698477767637270208e+00
6.757843352152180572e+00 -2.723525421701141980e+00
6.838293868249230023e+00 -2.749387181060600316e+00
6.918744384346279475e+00 -2.759398450972888828e+00
6.999194900443328926e+00 -2.729054334113476532e+00
7.079645416540378378e+00 -2.708058097296826450e+00
7.160095932637429605e+00 -2.732529711103915293e+00
7.240546448734479057e+00 -2.744367131225829315e+00
7.320996964831528508e+00 -2.750385483200948222e+00
7.401447480928577960e+00 -2.783087952194102765e+00
7.481897997025627411e+00 -2.787760914993291372e+00
7.562348513122678639e+00 -2.772431679241281532e+00
7.642799029219728091e+00 -2.758141322516302285e+00
7.723249545316777542e+00 -2.748381508163181053e+00
7.803700061413826994e+00 -2.749187965507213782e+00
7.884150577510876445e+00 -2.754413098086668565e+00
7.964601093607927673e+00 -2.763438918168071190e+00
8.045051609704977125e+00 -2.761570749454806517e+00
8.125502125802025688e+00 -2.745816886288170444e+00
8.205952641899076028e+00 -2.724290940024180152e+00
8.286403157996124591e+00 -2.722882606319215970e+00
8.366853674093176707e+00 -2.751143399820320745e+00
8.447304190190225270e+00 -2.770130901862165373e+00
8.527754706287275610e+00 -2.792815812471777015e+00
8.608205222384324173e+00 -2.836058409603293029e+00
8.688655738481374513e+00 -2.853511977876481254e+00
8.769106254578423076e+00 -2.819953137490270212e+00
8.849556770675475192e+00 -2.781150795267147036e+00
8.930007286772523756e+00 -2.784667755405836331e+00
9.010457802869574095e+00 -2.812709456748589520e+00
9.090908318966622659e+00 -2.822799616893226560e+00
9.171358835063672998e+00 -2.820127255677677525e+00
9.251809351160723338e+00 -2.821097161134872522e+00
9.332259867257773678e+00 -2.816729109489086724e+00
9.412710383354822241e+00 -2.833059946945469587e+00
9.493160899451872581e+00 -2.838679416664382948e+00
9.573611415548921144e+00 -2.820184077279164203e+00
9.654061931645971484e+00 -2.825237185889646785e+00
9.734512447743021823e+00 -2.850347059007867667e+00
9.814962963840072163e+00 -2.854618756253263889e+00
9.895413479937120727e+00 -2.861226607367597374e+00
9.975863996034171066e+00 -2.868263915217077908e+00
1.005631451213121963e+01 -2.865582891463175574e+00
1.013676502822827175e+01 -2.823187633612341596e+00
1.021721554432532031e+01 -2.798817966548113212e+00
1.029766606042237065e+01 -2.812417352969294182e+00
