0.000000000000000000e+00 -1.549019599857431873e-01
8.045051609704977069e-02 -2.059694129550208030e-01
1.609010321940995414e-01 -5.533908465649274300e-01
2.413515482911492982e-01 -1.069886152233769705e+00
3.218020643881990828e-01 -1.178006280398014027e+00
4.022525804852488118e-01 -1.349403190314263368e+00
4.827030965822985964e-01 -1.549022265546840860e+00
5.631536126793483810e-01 -1.788678049452407937e+00
6.436041287763981655e-01 -2.016871528198021402e+00
7.240546448734478391e-01 -2.223479699271668775e+00
8.045051609704976237e-01 -2.485636144770698941e+00
8.849556770675472972e-01 -2.719776642577931725e+00
9.654061931645971928e-01 -2.881151041682474379e+00
1.045856709261647088e+00 -2.937942755640417403e+00
1.126307225358696762e+00 -2.929308254757415853e+00
1.206757741455746435e+00 -2.921370040281448421e+00
1.287208257552796331e+00 -2.906786295183187541e+00
1.367658773649846005e+00 -2.879176175448284525e+00
1.448109289746895678e+00 -2.814261950444739480e+00
1.528559805843945352e+00 -2.807167688773927861e+00
1.609010321940995247e+00 -2.845789164294011186e+00
1.689460838038045143e+00 -2.871140597041750731e+00
1.769911354135094594e+00 -2.810723398957785779e+00
1.850361870232144490e+00 -2.699122000626255069e+00
1.930812386329194386e+00 -2.636859061108343116e+00
2.011262902426244281e+00 -2.604321543457421839e+00
2.091713418523294177e+00 -2.566426970456509693e+00
2.172163934620343628e+00 -2.559913944220209459e+00
2.252614450717393524e+00 -2.584520417051800578e+00
2.333064966814443419e+00 -2.607039049639558126e+00
2.413515482911492871e+00 -2.605395510428810013e+00
2.493965999008542767e+00 -2.603076351580033698e+00
2.574416515105592662e+00 -2.606359691017352986e+00
2.654867031202642558e+00 -2.622118818500619231e+00
2.735317547299692009e+00 -2.608247054224875683e+00
2.815768063396741905e+00 -2.579532940624438275e+00
2.896218579493791356e+00 -2.550970034403526654e+00
2.976669095590841252e+00 -2.537979329845539755e+00
3.057119611687890703e+00 -2.488704511524639340e+00
3.137570127784940599e+00 -2.494474642498875738e+00
3.218020643881990495e+00 -2.533302988094230379e+00
3.298471159979039946e+00 -2.606772389939778556e+00
3.378921676076090286e+00 -2.630001248615364773e+00
3.459372192173139737e+00 -2.616746015376725243e+00
3.539822708270189189e+00 -2.597149087233619813e+00
3.620273224367239528e+00 -2.592199256313740818e+00
3.700723740464288980e+00 -2.560301655420166078e+00
3.781174256561339320e+00 -2.589215720284529176e+00
3.861624772658388771e+00 -2.660781034317569738e+00
3.942075288755438223e+00 -2.676029841609188331e+00
4.022525804852488562e+00 -2.642906394019817640e+00
4.102976320949538014e+00 -2.639307443546823340e+00
4.183426837046588354e+00 -2.624658169126862450e+00
4.263877353143637805e+00 -2.615724167369000153e+00
4.344327869240687257e+00 -2.617329737454319183e+00
4.424778385337737596e+00 -2.655805390749970574e+00
4.505228901434787048e+00 -2.673795871073723074e+00
4.585679417531836499e+00 -2.655664318056909501e+00
4.666129933628886839e+00 -2.589626311017424243e+00
4.746580449725936290e+00 -2.570501812465607827e+00
4.827030965822985742e+00 -2.577571471545496262e+00
4.907481481920036082e+00 -2.580180019358678578e+00
4.987931998017085533e+00 -2.590590182559040056e+00
5.068382514114135873e+00 -2.629808184747087552e+00
5.148833030211185324e+00 -2.630605450061222150e+00
5.229283546308234776e+00 -2.611004218555168510e+00
5.309734062405285115e+00 -2.633888046724299770e+00
5.390184578502334567e+00 -2.676823617968059121e+00
5.470635094599384018e+00 -2.697519703172806427e+00
5.551085610696433470e+00 -2.708415263524518668e+00
5.631536126793483810e+00 -2.704162854420303574e+00
5.711986642890533261e+00 -2.687972495649781912e+00
5.792437158987582713e+00 -2.678680009074362989e+00
5.872887675084633052e+00 -2.668672925087776093e+00
5.953338191181682504e+00 -2.665971224991445343e+00
6.033788707278731955e+00 -2.676280052159001333e+00
6.114239223375781407e+00 -2.659726631138306541e+00
6.194689739472831747e+00 -2.655190523686432602e+00
6.275140255569881198e+00 -2.672210233452748884e+00
6.355590771666931538e+00 -2.690048497692365981e+00
6.436041287763980989e+00 -2.685740862298618303e+00
6.516491803861030441e+00 -2.670560710688584027e+00
6.596942319958079892e+00 -2.647833384355568587e+00
6.677392836055131120e+00 -2.665186877013818734e+00
6.757843352152180572e+00 -2.699237381151125881e+00
6.838293868249230023e+00 -2.739822885215069892e+00
6.918744384346279475e+00 -2.744922201359017322e+00
6.999194900443328926e+00 -2.757662329734414275e+00
7.079645416540378378e+00 -2.778560996416703954e+00
7.160095932637429605e+00 -2.783442917223355462e+00
7.240546448734479057e+00 -2.760303390371639409e+00
7.320996964831528508e+00 -2.740759839151216237e+00
7.401447480928577960e+00 -2.730314514000097059e+00
7.481897997025627411e+00 -2.744010466506276558e+00
7.562348513122678639e+00 -2.765935772560262240e+00
7.642799029219728091e+00 -2.790326775446133389e+00
7.723249545316777542e+00 -2.791096152435114774e+00
7.803700061413826994e+00 -2.791526992571609966e+00
7.884150577510876445e+00 -2.790125952480235316e+00
7.964601093607927673e+00 -2.794663127819190240e+00
8.045051609704977125e+00 -2.832466992058569666e+00
8.125502125802025688e+00 -2.846383686870251228e+00
8.205952641899076028e+00 -2.824125700001047345e+00
8.286403157996124591e+00 -2.792640493899789522e+00
8.366853674093176707e+00 -2.762915887685577943e+00
8.447304190190225270e+00 -2.735852444825527918e+00
8.527754706287275610e+00 -2.736968859189730097e+00
8.608205222384324173e+00 -2.745388376477432946e+00
8.688655738481374513e+00 -2.753169317743690225e+00
8.769106254578423076e+00 -2.766692163590387388e+00
8.849556770675475192e+00 -2.772153302806006359e+00
8.930007286772523756e+00 -2.764372469656853681e+00
9.010457802869574095e+00 -2.759775756632067534e+00
9.090908318966622659e+00 -2.758610758493333037e+00
9.171358835063672998e+00 -2.756292109133177348e+00
9.251809351160723338e+00 -2.762423173897905482e+00
9.332259867257773678e+00 -2.770643471280263892e+00
9.412710383354822241e+00 -2.796171846696594354e+00
9.493160899451872581e+00 -2.830716228414022151e+00
9.573611415548921144e+00 -2.850147266161853654e+00
9.654061931645971484e+00 -2.838839766215767391e+00
9.734512447743021823e+00 -2.831153222162746452e+00
9.814962963840072163e+00 -2.818748678253918616e+00
9.895413479937120727e+00 -2.805455027800611845e+00
9.975863996034171066e+00 -2.811705584992237217e+00
1.005631451213121963e+01 -2.825041881328390847e+00
1.013676502822827175e+01 -2.827314045969852252e+00
1.021721554432532031e+01 -2.812509908975723949e+00
1.029766606042237065e+01 -2.804144067392309925e+00
