0.000000000000000000e+00 -1.549019599857431873e-01
8.045051609704977069e-02 -1.915134940141165754e-01
1.609010321940995414e-01 -4.745041452879940613e-01
2.413515482911492982e-01 -1.059139791732476965e+00
3.218020643881990828e-01 -1.355329664128866796e+00
4.022525804852488118e-01 -1.569442739968264222e+00
4.827030965822985964e-01 -1.795388981400546591e+00
5.631536126793483810e-01 -1.909819608686833314e+00
6.436041287763981655e-01 -2.054848015266587780e+00
7.240546448734478391e-01 -2.313317266108183556e+00
8.045051609704976237e-01 -2.629740260688617770e+00
8.849556770675472972e-01 -2.812672597910649053e+00
9.654061931645971928e-01 -2.946055615409064021e+00
1.045856709261647088e+00 -3.002976093359059462e+00
1.126307225358696762e+00 -2.998072954661564538e+00
1.206757741455746435e+00 -2.943022551868041514e+00
1.287208257552796331e+00 -2.860107453033601477e+00
1.367658773649846005e+00 -2.791165296758483905e+00
1.448109289746895678e+00 -2.775691567228579792e+00
1.528559805843945352e+00 -2.729617669943455116e+00
1.609010321940995247e+00 -2.708905142741699024e+00
1.689460838038045143e+00 -2.726058949446665824e+00
1.769911354135094594e+00 -2.770060266261568316e+00
1.850361870232144490e+00 -2.735982471810709526e+00
1.930812386329194386e+00 -2.647207885801621252e+00
2.011262902426244281e+00 -2.601706508311640853e+00
2.091713418523294177e+00 -2.584308872016841896e+00
2.172163934620343628e+00 -2.583533551090011926e+00
2.252614450717393524e+00 -2.579008055620719553e+00
2.333064966814443419e+00 -2.595432527972416636e+00
2.413515482911492871e+00 -2.611467499856219288e+00
2.493965999008542767e+00 -2.587079334709443401e+00
2.574416515105592662e+00 -2.569605009825716824e+00
2.654867031202642558e+00 -2.597049905484474674e+00
2.735317547299692009e+00 -2.650586033118481843e+00
2.815768063396741905e+00 -2.683543849542113779e+00
2.896218579493791356e+00 -2.700506062957421793e+00
2.976669095590841252e+00 -2.701060380430043484e+00
3.057119611687890703e+00 -2.678570475030039866e+00
3.137570127784940599e+00 -2.653824381189512582e+00
3.218020643881990495e+00 -2.667233388323932530e+00
3.298471159979039946e+00 -2.656173036783102237e+00
3.378921676076090286e+00 -2.626472336746799918e+00
3.459372192173139737e+00 -2.572005997810526967e+00
3.539822708270189189e+00 -2.520040063585280876e+00
3.620273224367239528e+00 -2.508743129483752554e+00
3.700723740464288980e+00 -2.546727467913660892e+00
3.781174256561339320e+00 -2.576099506312891751e+00
3.861624772658388771e+00 -2.582606859110033071e+00
3.942075288755438223e+00 -2.598765033062437446e+00
4.022525804852488562e+00 -2.605619283146996867e+00
4.102976320949538014e+00 -2.587786160633842591e+00
4.183426837046588354e+00 -2.596025814243415386e+00
4.263877353143637805e+00 -2.631773893205494375e+00
4.344327869240687257e+00 -2.631024601306168886e+00
4.424778385337737596e+00 -2.614286841042689158e+00
4.505228901434787048e+00 -2.642902792445550375e+00
4.585679417531836499e+00 -2.673739528045359304e+00
4.666129933628886839e+00 -2.696112996552370689e+00
4.746580449725936290e+00 -2.712916312380806438e+00
4.827030965822985742e+00 -2.686147924674759491e+00
4.907481481920036082e+00 -2.651466423615279400e+00
4.987931998017085533e+00 -2.665623557657697429e+00
5.068382514114135873e+00 -2.678087144587185442e+00
5.148833030211185324e+00 -2.687191236425499508e+00
5.229283546308234776e+00 -2.700063648221814994e+00
5.309734062405285115e+00 -2.681784172100234898e+00
5.390184578502334567e+00 -2.663056183879566774e+00
5.470635094599384018e+00 -2.662712205705221713e+00
5.551085610696433470e+00 -2.670548143286949561e+00
5.631536126793483810e+00 -2.683084247507591336e+00
5.711986642890533261e+00 -2.688736761955337506e+00
5.792437158987582713e+00 -2.671475742209004967e+00
5.872887675084633052e+00 -2.682662179034337235e+00
5.953338191181682504e+00 -2.699934548167636450e+00
6.033788707278731955e+00 -2.734289923785497844e+00
6.114239223375781407e+00 -2.741274647790095553e+00
6.194689739472831747e+00 -2.727678318839577454e+00
6.275140255569881198e+00 -2.707291855645962642e+00
6.355590771666931538e+00 -2.695534491703016400e+00
6.436041287763980989e+00 -2.688292751448942752e+00
6.516491803861030441e+00 -2.680953394984883609e+00
6.596942319958079892e+00 -2.708058714216551977e+00
6.677392836055131120e+00 -2.752578345257454373e+00
6.757843352152180572e+00 -2.764675266816527976e+00
6.838293868249230023e+00 -2.733185382813728914e+00
6.918744384346279475e+00 -2.721832908292305397e+00
6.999194900443328926e+00 -2.724293614862447033e+00
7.079645416540378378e+00 -2.724193490712813581e+00
7.160095932637429605e+00 -2.727575071759837044e+00
7.240546448734479057e+00 -2.719112796319601344e+00
7.320996964831528508e+00 -2.704350315366783164e+00
7.401447480928577960e+00 -2.697279789276501472e+00
7.481897997025627411e+00 -2.700742708693240068e+00
7.562348513122678639e+00 -2.702273921793945988e+00
7.642799029219728091e+00 -2.700370635474924619e+00
7.723249545316777542e+00 -2.715817742850966443e+00
7.803700061413826994e+00 -2.737129820326452911e+00
7.884150577510876445e+00 -2.764886525575310117e+00
7.964601093607927673e+00 -2.744255018360190590e+00
8.045051609704977125e+00 -2.728392189495163045e+00
8.125502125802025688e+00 -2.729130008254650797e+00
8.205952641899076028e+00 -2.732382114216748814e+00
8.286403157996124591e+00 -2.733840943007687319e+00
8.366853674093176707e+00 -2.730374629963232547e+00
8.447304190190225270e+00 -2.730638950946585819e+00
8.527754706287275610e+00 -2.785823488509180823e+00
8.608205222384324173e+00 -2.826685939837490391e+00
8.688655738481374513e+00 -2.818026957783834607e+00
8.769106254578423076e+00 -2.802223641017707045e+00
8.849556770675475192e+00 -2.799311459985205808e+00
8.930007286772523756e+00 -2.808453604568000195e+00
9.010457802869574095e+00 -2.817781837918840626e+00
9.090908318966622659e+00 -2.807567402730344330e+00
9.171358835063672998e+00 -2.799604956113244558e+00
9.251809351160723338e+00 -2.796615689006505256e+00
9.332259867257773678e+00 -2.805913416858562659e+00
9.412710383354822241e+00 -2.792054570704847638e+00
9.493160899451872581e+00 -2.781421720869269532e+00
9.573611415548921144e+00 -2.775704263053101251e+00
9.654061931645971484e+00 -2.776234491194286225e+00
9.734512447743021823e+00 -2.775543718582768271e+00
9.814962963840072163e+00 -2.790863299837241573e+00
9.895413479937120727e+00 -2.804203476125399330e+00
9.975863996034171066e+00 -2.793039476283452949e+00
1.005631451213121963e+01 -2.796307571282867777e+00
1.013676502822827175e+01 -2.817345162712508344e+00
1.021721554432532031e+01 -2.835903549396058931e+00
1.029766606042237065e+01 -2.836148816195118272e+00
