0.000000000000000000e+00 -1.549019599857431873e-01
8.045051609704977069e-02 -1.987757732416191303e-01
1.609010321940995414e-01 -5.398466980576337448e-01
2.413515482911492982e-01 -1.131450937242885590e+00
3.218020643881990828e-01 -1.340916433411595055e+00
4.022525804852488118e-01 -1.494964114110452380e+00
4.827030965822985964e-01 -1.662244039230855730e+00
5.631536126793483810e-01 -1.864907074586431790e+00
6.436041287763981655e-01 -2.087001797001824865e+00
7.240546448734478391e-01 -2.356249672260140926e+00
8.045051609704976237e-01 -2.644808963186239037e+00
8.849556770675472972e-01 -2.846037980689951841e+00
9.654061931645971928e-01 -2.931626181608570914e+00
1.045856709261647088e+00 -2.930453047082485885e+00
1.126307225358696762e+00 -2.923394447466447499e+00
1.206757741455746435e+00 -2.924562852955822745e+00
1.287208257552796331e+00 -2.926288601407992296e+00
1.367658773649846005e+00 -2.931589958398824525e+00
1.448109289746895678e+00 -2.919412639756645778e+00
1.528559805843945352e+00 -2.843166213423018895e+00
1.609010321940995247e+00 -2.818415929540964981e+00
1.689460838038045143e+00 -2.873950823610088356e+00
1.769911354135094594e+00 -2.883265393684169897e+00
1.850361870232144490e+00 -2.807651831619422111e+00
1.930812386329194386e+00 -2.713886478816025960e+00
2.011262902426244281e+00 -2.693522612559228868e+00
2.091713418523294177e+00 -2.716537739353511949e+00
2.172163934620343628e+00 -2.647735724643025534e+00
2.252614450717393524e+00 -2.623689133700505050e+00
2.333064966814443419e+00 -2.631246148600081991e+00
2.413515482911492871e+00 -2.597658619710874639e+00
2.493965999008542767e+00 -2.547155418480113731e+00
2.574416515105592662e+00 -2.536128417362306209e+00
2.654867031202642558e+00 -2.539058461951048784e+00
2.735317547299692009e+00 -2.525708342526347572e+00
2.815768063396741905e+00 -2.511942921558023567e+00
2.896218579493791356e+00 -2.509645954445760108e+00
2.976669095590841252e+00 -2.543602522384275311e+00
3.057119611687890703e+00 -2.605397569840615990e+00
3.137570127784940599e+00 -2.650912749593320683e+00
3.218020643881990495e+00 -2.621738131126015503e+00
3.298471159979039946e+00 -2.593594475689500634e+00
3.378921676076090286e+00 -2.585421795286351632e+00
3.459372192173139737e+00 -2.642897752155060953e+00
3.539822708270189189e+00 -2.697624357313749055e+00
3.620273224367239528e+00 -2.682719796931357870e+00
3.700723740464288980e+00 -2.681002526799862284e+00
3.781174256561339320e+00 -2.687338460669182361e+00
3.861624772658388771e+00 -2.692922855699826368e+00
3.942075288755438223e+00 -2.673420031651698725e+00
4.022525804852488562e+00 -2.685904474175431655e+00
4.102976320949538014e+00 -2.702446977755428303e+00
4.183426837046588354e+00 -2.721161176262901993e+00
4.263877353143637805e+00 -2.699156675582377485e+00
4.344327869240687257e+00 -2.642494946541313894e+00
4.424778385337737596e+00 -2.632964933403769248e+00
4.505228901434787048e+00 -2.682927166579195610e+00
4.585679417531836499e+00 -2.700895526439064387e+00
4.666129933628886839e+00 -2.684871649579354536e+00
4.746580449725936290e+00 -2.652659555338046982e+00
4.827030965822985742e+00 -2.655944387289173036e+00
4.907481481920036082e+00 -2.663076049826574199e+00
4.987931998017085533e+00 -2.663503646502595412e+00
5.068382514114135873e+00 -2.654870594381972371e+00
5.148833030211185324e+00 -2.667992770552152226e+00
5.229283546308234776e+00 -2.689064903911517757e+00
5.309734062405285115e+00 -2.703934919952630800e+00
5.390184578502334567e+00 -2.720930526449852227e+00
5.470635094599384018e+00 -2.759854548920509743e+00
5.551085610696433470e+00 -2.784822224206699559e+00
5.631536126793483810e+00 -2.737768276219757713e+00
5.711986642890533261e+00 -2.705160003268525681e+00
5.792437158987582713e+00 -2.713358733430469183e+00
5.872887675084633052e+00 -2.740113375755723002e+00
5.953338191181682504e+00 -2.720366640740034647e+00
6.033788707278731955e+00 -2.687780710760009573e+00
6.114239223375781407e+00 -2.659671692467355797e+00
6.194689739472831747e+00 -2.625537252383880471e+00
6.275140255569881198e+00 -2.610276357453903628e+00
6.355590771666931538e+00 -2.638396307952310060e+00
6.436041287763980989e+00 -2.677007292613957645e+00
6.516491803861030441e+00 -2.702873092746050698e+00
6.596942319958079892e+00 -2.720785772520293744e+00
6.677392836055131120e+00 -2.715860833127119012e+00
6.757843352152180572e+00 -2.700704731302212558e+00
6.838293868249230023e+00 -2.695751579638305362e+00
6.918744384346279475e+00 -2.705866587569287773e+00
6.999194900443328926e+00 -2.702462381707863237e+00
7.079645416540378378e+00 -2.694386054870126390e+00
7.160095932637429605e+00 -2.694588221625570323e+00
7.240546448734479057e+00 -2.707883613758996777e+00
7.320996964831528508e+00 -2.742975247165614583e+00
7.401447480928577960e+00 -2.770478982116575839e+00
7.481897997025627411e+00 -2.791599489483154173e+00
7.562348513122678639e+00 -2.770049530825905215e+00
7.642799029219728091e+00 -2.744286354412240669e+00
7.723249545316777542e+00 -2.747494492239391572e+00
7.803700061413826994e+00 -2.769020742977437610e+00
7.884150577510876445e+00 -2.777158394821929832e+00
7.964601093607927673e+00 -2.748798663293853917e+00
8.045051609704977125e+00 -2.718760033439021395e+00
8.125502125802025688e+00 -2.711628574065929609e+00
8.205952641899076028e+00 -2.720833711803615440e+00
8.286403157996124591e+00 -2.744059915603034749e+00
8.366853674093176707e+00 -2.768425437298082770e+00
8.447304190190225270e+00 -2.767016250022372947e+00
8.527754706287275610e+00 -2.762566036620257126e+00
8.608205222384324173e+00 -2.763365352869780356e+00
8.688655738481374513e+00 -2.787237428849595577e+00
8.769106254578423076e+00 -2.823703813934158813e+00
8.849556770675475192e+00 -2.821537391699482811e+00
8.930007286772523756e+00 -2.803254022419774394e+00
9.010457802869574095e+00 -2.799594590096858848e+00
9.090908318966622659e+00 -2.817392596534060267e+00
9.171358835063672998e+00 -2.822135432849806502e+00
9.251809351160723338e+00 -2.816050014609117635e+00
9.332259867257773678e+00 -2.833429268120769784e+00
9.412710383354822241e+00 -2.837381701586042304e+00
9.493160899451872581e+00 -2.827466722251724907e+00
9.573611415548921144e+00 -2.808132978156460346e+00
9.654061931645971484e+00 -2.794503952705316596e+00
9.734512447743021823e+00 -2.796344373969803954e+00
9.814962963840072163e+00 -2.814955299116045584e+00
9.895413479937120727e+00 -2.817290335970903392e+00
9.975863996034171066e+00 -2.811540441522526912e+00
1.005631451213121963e+01 -2.802768065958550991e+00
1.013676502822827175e+01 -2.801746672669993110e+00
1.021721554432532031e+01 -2.803240159419007060e+00
1.029766606042237065e+01 -2.827963859056678242e+00
