0.000000000000000000e+00 -1.549019599857431873e-01
8.045051609704977069e-02 -1.817818448871703074e-01
1.609010321940995414e-01 -4.037196356617446802e-01
2.413515482911492982e-01 -1.166471871851026076e+00
3.218020643881990828e-01 -1.887009720633651355e+00
4.022525804852488118e-01 -2.456581521629268128e+00
4.827030965822985964e-01 -3.146264169701654012e+00
5.631536126793483810e-01 -3.174601268449805058e+00
6.436041287763981655e-01 -3.210923932533120251e+00
7.240546448734478391e-01 -3.322567486244715873e+00
8.045051609704976237e-01 -3.501463219824784368e+00
8.849556770675472972e-01 -3.637622854568816066e+00
9.654061931645971928e-01 -3.722793434818937541e+00
1.045856709261647088e+00 -3.780240953306615914e+00
1.126307225358696762e+00 -3.808815203646881198e+00
1.206757741455746435e+00 -3.771887803376416937e+00
1.287208257552796331e+00 -3.699389717990133164e+00
1.367658773649846005e+00 -3.585633863221525885e+00
1.448109289746895678e+00 -3.511541127204131030e+00
1.528559805843945352e+00 -3.518885371663893036e+00
1.609010321940995247e+00 -3.554877668025969939e+00
1.689460838038045143e+00 -3.534539541328849843e+00
1.769911354135094594e+00 -3.450919220399410570e+00
1.850361870232144490e+00 -3.393948267877360259e+00
1.930812386329194386e+00 -3.367113689362612572e+00
2.011262902426244281e+00 -3.327687515581941202e+00
2.091713418523294177e+00 -3.293631424976896316e+00
2.172163934620343628e+00 -3.241678545447086002e+00
2.252614450717393524e+00 -3.158317030244636836e+00
2.333064966814443419e+00 -3.098276683541749232e+00
2.413515482911492871e+00 -3.092238220566307039e+00
2.493965999008542767e+00 -3.146321596746251004e+00
2.574416515105592662e+00 -3.227093271326614943e+00
2.654867031202642558e+00 -3.268718285366599030e+00
2.735317547299692009e+00 -3.301999524393024465e+00
2.815768063396741905e+00 -3.341277975252046062e+00
2.896218579493791356e+00 -3.388197619640006319e+00
2.976669095590841252e+00 -3.400656055583873183e+00
3.057119611687890703e+00 -3.364692712598762903e+00
3.137570127784940599e+00 -3.344613446363134734e+00
3.218020643881990495e+00 -3.335782324665897747e+00
3.298471159979039946e+00 -3.305434013642833069e+00
3.378921676076090286e+00 -3.291617178816734324e+00
3.459372192173139737e+00 -3.278252991984514253e+00
3.539822708270189189e+00 -3.283612328594895491e+00
3.620273224367239528e+00 -3.296285644751482113e+00
3.700723740464288980e+00 -3.304110083750090077e+00
3.781174256561339320e+00 -3.292073949020644097e+00
3.861624772658388771e+00 -3.254473171734551418e+00
3.942075288755438223e+00 -3.253553613653219045e+00
4.022525804852488562e+00 -3.254853676545134800e+00
4.102976320949538014e+00 -3.232887060209692631e+00
4.183426837046588354e+00 -3.208044194346019395e+00
4.263877353143637805e+00 -3.207839860383227659e+00
4.344327869240687257e+00 -3.247273797342035362e+00
4.424778385337737596e+00 -3.290298621343826113e+00
4.505228901434787048e+00 -3.271367589568970669e+00
4.585679417531836499e+00 -3.253571664771742089e+00
4.666129933628886839e+00 -3.235918485418828094e+00
4.746580449725936290e+00 -3.225939764915656038e+00
4.827030965822985742e+00 -3.203996036724029217e+00
4.907481481920036082e+00 -3.195286950978561080e+00
4.987931998017085533e+00 -3.204309273508055611e+00
5.068382514114135873e+00 -3.213420342586081002e+00
5.148833030211185324e+00 -3.252124401327092684e+00
5.229283546308234776e+00 -3.291505519251325396e+00
5.309734062405285115e+00 -3.299420222759676502e+00
5.390184578502334567e+00 -3.280706999105704291e+00
5.470635094599384018e+00 -3.264999996414819083e+00
5.551085610696433470e+00 -3.262881548074555660e+00
5.631536126793483810e+00 -3.284274817831934534e+00
5.711986642890533261e+00 -3.306907962567116055e+00
5.792437158987582713e+00 -3.300909504924876003e+00
5.872887675084633052e+00 -3.292057559686938806e+00
5.953338191181682504e+00 -3.289688572926596333e+00
6.033788707278731955e+00 -3.301751250847204222e+00
6.114239223375781407e+00 -3.301921252446252453e+00
6.194689739472831747e+00 -3.306499318380079711e+00
6.275140255569881198e+00 -3.326992873928203309e+00
6.355590771666931538e+00 -3.340102787172738896e+00
6.436041287763980989e+00 -3.339466787499158595e+00
6.516491803861030441e+00 -3.312819108385007372e+00
6.596942319958079892e+00 -3.313003982626465671e+00
6.677392836055131120e+00 -3.300405367511436872e+00
6.757843352152180572e+00 -3.301455707954773278e+00
6.838293868249230023e+00 -3.300649678602100234e+00
6.918744384346279475e+00 -3.289603605682738241e+00
6.999194900443328926e+00 -3.295300705746410319e+00
7.079645416540378378e+00 -3.320042017641757326e+00
7.160095932637429605e+00 -3.345732995472202376e+00
7.240546448734479057e+00 -3.365827961906803445e+00
7.320996964831528508e+00 -3.375251556454201829e+00
7.401447480928577960e+00 -3.385190675683451555e+00
7.481897997025627411e+00 -3.377860691004410221e+00
7.562348513122678639e+00 -3.362640041052399997e+00
7.642799029219728091e+00 -3.328011917371882067e+00
7.723249545316777542e+00 -3.341443255053963224e+00
7.803700061413826994e+00 -3.385630409462704105e+00
7.884150577510876445e+00 -3.439475758534037642e+00
7.964601093607927673e+00 -3.460737035124129335e+00
8.045051609704977125e+00 -3.432701769746225207e+00
8.125502125802025688e+00 -3.401244566176416573e+00
8.205952641899076028e+00 -3.369124208653068830e+00
8.286403157996124591e+00 -3.333727267602740074e+00
8.366853674093176707e+00 -3.314984385264109878e+00
8.447304190190225270e+00 -3.311508950176581312e+00
8.527754706287275610e+00 -3.306583426421165761e+00
8.608205222384324173e+00 -3.306613076155987763e+00
8.688655738481374513e+00 -3.317486334384166291e+00
8.769106254578423076e+00 -3.338783803996614008e+00
8.849556770675475192e+00 -3.365459453019043146e+00
8.930007286772523756e+00 -3.394414310799509504e+00
9.010457802869574095e+00 -3.399195821247759763e+00
9.090908318966622659e+00 -3.384929837805485064e+00
9.171358835063672998e+00 -3.374877376218640812e+00
9.251809351160723338e+00 -3.374006493050789146e+00
9.332259867257773678e+00 -3.378188442147269654e+00
9.412710383354822241e+00 -3.402397178820153911e+00
9.493160899451872581e+00 -3.435678358106715180e+00
9.573611415548921144e+00 -3.441399225106114734e+00
9.654061931645971484e+00 -3.410881271718250396e+00
9.734512447743021823e+00 -3.392872194130774233e+00
9.814962963840072163e+00 -3.377568410283833256e+00
9.895413479937120727e+00 -3.391644221486035171e+00
9.975863996034171066e+00 -3.424410393011731557e+00
1.005631451213121963e+01 -3.456503986669491990e+00
1.013676502822827175e+01 -3.476388510975503277e+00
1.021721554432532031e+01 -3.495710707225677893e+00
1.029766606042237065e+01 -3.520942230570159648e+00
