0.000000000000000000e+00 -1.549019599857431873e-01
8.045051609704977069e-02 -2.020398894338365225e-01
1.609010321940995414e-01 -5.839811061233572964e-01
2.413515482911492982e-01 -1.448780480490901024e+00
3.218020643881990828e-01 -1.904275613915069387e+00
4.022525804852488118e-01 -2.521007324171619324e+00
4.827030965822985964e-01 -3.186832604468351704e+00
5.631536126793483810e-01 -3.542627533651077076e+00
6.436041287763981655e-01 -3.637842720142022479e+00
7.240546448734478391e-01 -3.660412530581965473e+00
8.045051609704976237e-01 -3.661962249890032606e+00
8.849556770675472972e-01 -3.646250173479277823e+00
9.654061931645971928e-01 -3.698800258873566893e+00
1.045856709261647088e+00 -3.892077264523577718e+00
1.126307225358696762e+00 -4.049516646065947967e+00
1.206757741455746435e+00 -3.985863841473686886e+00
1.287208257552796331e+00 -3.824493688569456040e+00
1.367658773649846005e+00 -3.709125121338449738e+00
1.448109289746895678e+00 -3.680806249316974199e+00
1.528559805843945352e+00 -3.656164017527134824e+00
1.609010321940995247e+00 -3.569374507920151984e+00
1.689460838038045143e+00 -3.536119281263621961e+00
1.769911354135094594e+00 -3.457874849852012655e+00
1.850361870232144490e+00 -3.361859859448015353e+00
1.930812386329194386e+00 -3.325141663241182766e+00
2.011262902426244281e+00 -3.313568224414142449e+00
2.091713418523294177e+00 -3.241711516291231110e+00
2.172163934620343628e+00 -3.177885621354028967e+00
2.252614450717393524e+00 -3.160703399369912070e+00
2.333064966814443419e+00 -3.185632276912901517e+00
2.413515482911492871e+00 -3.196459296389692728e+00
2.493965999008542767e+00 -3.182825541170589023e+00
2.574416515105592662e+00 -3.150930945588587662e+00
2.654867031202642558e+00 -3.155144740263956304e+00
2.735317547299692009e+00 -3.208777400185524264e+00
2.815768063396741905e+00 -3.235308294214112923e+00
2.896218579493791356e+00 -3.229872480154043046e+00
2.976669095590841252e+00 -3.227741162769043548e+00
3.057119611687890703e+00 -3.241240001446030305e+00
3.137570127784940599e+00 -3.277179648632404962e+00
3.218020643881990495e+00 -3.280462229832968202e+00
3.298471159979039946e+00 -3.222139255132916436e+00
3.378921676076090286e+00 -3.155606525488406700e+00
3.459372192173139737e+00 -3.154101082894208208e+00
3.539822708270189189e+00 -3.197173690572964855e+00
3.620273224367239528e+00 -3.214240962342602259e+00
3.700723740464288980e+00 -3.238785228396578120e+00
3.781174256561339320e+00 -3.220205043282926116e+00
3.861624772658388771e+00 -3.181220791847803930e+00
3.942075288755438223e+00 -3.162456172065539306e+00
4.022525804852488562e+00 -3.149745430403908752e+00
4.102976320949538014e+00 -3.156378163988490471e+00
4.183426837046588354e+00 -3.230060242458800079e+00
4.263877353143637805e+00 -3.272553407724381191e+00
4.344327869240687257e+00 -3.271311458340428135e+00
4.424778385337737596e+00 -3.289700459848307723e+00
4.505228901434787048e+00 -3.298629800848305482e+00
4.585679417531836499e+00 -3.276933931736189631e+00
4.666129933628886839e+00 -3.264402419336696948e+00
4.746580449725936290e+00 -3.264784949303401795e+00
4.827030965822985742e+00 -3.247913590254586147e+00
4.907481481920036082e+00 -3.256065921322642165e+00
4.987931998017085533e+00 -3.250640366369204948e+00
5.068382514114135873e+00 -3.214567103379130764e+00
5.148833030211185324e+00 -3.183452075291114625e+00
5.229283546308234776e+00 -3.197869861906583733e+00
5.309734062405285115e+00 -3.241279071002227674e+00
5.390184578502334567e+00 -3.253678090572918347e+00
5.470635094599384018e+00 -3.254380283991151757e+00
5.551085610696433470e+00 -3.273073117945204391e+00
5.631536126793483810e+00 -3.261463601581477079e+00
5.711986642890533261e+00 -3.225967639366579931e+00
5.792437158987582713e+00 -3.199472608194410927e+00
5.872887675084633052e+00 -3.225305711744363979e+00
5.953338191181682504e+00 -3.258887298004561117e+00
6.033788707278731955e+00 -3.259445809957331797e+00
6.114239223375781407e+00 -3.245477584228272150e+00
6.194689739472831747e+00 -3.252011793765439585e+00
6.275140255569881198e+00 -3.260615253528631463e+00
6.355590771666931538e+00 -3.278012576096798636e+00
6.436041287763980989e+00 -3.316939376791403937e+00
6.516491803861030441e+00 -3.338002915206566446e+00
6.596942319958079892e+00 -3.303386461092151283e+00
6.677392836055131120e+00 -3.265153575996193158e+00
6.757843352152180572e+00 -3.274621165125417566e+00
6.838293868249230023e+00 -3.311131615559120611e+00
6.918744384346279475e+00 -3.319789178930181439e+00
6.999194900443328926e+00 -3.321175642956548213e+00
7.079645416540378378e+00 -3.335870175436753016e+00
7.160095932637429605e+00 -3.332494272986465500e+00
7.240546448734479057e+00 -3.296691067292164767e+00
7.320996964831528508e+00 -3.284681394483617289e+00
7.401447480928577960e+00 -3.292842960306898714e+00
7.481897997025627411e+00 -3.277948700299836204e+00
7.562348513122678639e+00 -3.259001261831537377e+00
7.642799029219728091e+00 -3.283027241336230251e+00
7.723249545316777542e+00 -3.312489178509579357e+00
7.803700061413826994e+00 -3.318942402594912799e+00
7.884150577510876445e+00 -3.325502589928202024e+00
7.964601093607927673e+00 -3.346979792940237619e+00
8.045051609704977125e+00 -3.371771733701545593e+00
8.125502125802025688e+00 -3.372850054087921379e+00
8.205952641899076028e+00 -3.382321714854351846e+00
8.286403157996124591e+00 -3.371142931710030766e+00
8.366853674093176707e+00 -3.363001230970728006e+00
8.447304190190225270e+00 -3.351371660720990242e+00
8.527754706287275610e+00 -3.343769351445983862e+00
8.608205222384324173e+00 -3.361645218747169483e+00
8.688655738481374513e+00 -3.371734943581662147e+00
8.769106254578423076e+00 -3.335202745282087822e+00
8.849556770675475192e+00 -3.300562177354344318e+00
8.930007286772523756e+00 -3.325091954682540596e+00
9.010457802869574095e+00 -3.367889981451350767e+00
9.090908318966622659e+00 -3.380357149535682115e+00
9.171358835063672998e+00 -3.397248126054133177e+00
9.251809351160723338e+00 -3.404238605894323477e+00
9.332259867257773678e+00 -3.393544987409415015e+00
9.412710383354822241e+00 -3.393876877974197459e+00
9.493160899451872581e+00 -3.410276702343490562e+00
9.573611415548921144e+00 -3.424318198078679654e+00
9.654061931645971484e+00 -3.422898340345110313e+00
9.734512447743021823e+00 -3.431054905229805385e+00
9.814962963840072163e+00 -3.437982500385070583e+00
9.895413479937120727e+00 -3.449456610309578508e+00
9.975863996034171066e+00 -3.460426246055825938e+00
1.005631451213121963e+01 -3.434524354934568535e+00
1.013676502822827175e+01 -3.407710069316633561e+00
1.021721554432532031e+01 -3.410196271856424932e+00
1.029766606042237065e+01 -3.418240768525755868e+00
