0.000000000000000000e+00 -1.549019599857431873e-01
8.045051609704977069e-02 -2.102621320679758654e-01
1.609010321940995414e-01 -6.546661963557475206e-01
2.413515482911492982e-01 -2.648950506139104100e+00
3.218020643881990828e-01 -2.480991456114812532e+00
4.022525804852488118e-01 -2.242055252835697399e+00
4.827030965822985964e-01 -2.180222165857163663e+00
5.631536126793483810e-01 -2.189311260863843867e+00
6.436041287763981655e-01 -2.278656081810928047e+00
7.240546448734478391e-01 -2.429297055872367217e+00
8.045051609704976237e-01 -2.551973682153022782e+00
8.849556770675472972e-01 -2.604333315356687439e+00
9.654061931645971928e-01 -2.591207119850265528e+00
1.045856709261647088e+00 -2.537316953494978655e+00
1.126307225358696762e+00 -2.515917058120411998e+00
1.206757741455746435e+00 -2.547684444936781034e+00
1.287208257552796331e+00 -2.583330541261870117e+00
1.367658773649846005e+00 -2.600926697820264977e+00
1.448109289746895678e+00 -2.589265839490040744e+00
1.528559805843945352e+00 -2.535994653979599445e+00
1.609010321940995247e+00 -2.570824590681944244e+00
1.689460838038045143e+00 -2.655954780812797456e+00
1.769911354135094594e+00 -2.686060150800325452e+00
1.850361870232144490e+00 -2.663268054374039462e+00
1.930812386329194386e+00 -2.609448565907577233e+00
2.011262902426244281e+00 -2.545178165329950559e+00
2.091713418523294177e+00 -2.525644717532570027e+00
2.172163934620343628e+00 -2.536548895704802131e+00
2.252614450717393524e+00 -2.568101454786966720e+00
2.333064966814443419e+00 -2.608422216989494835e+00
2.413515482911492871e+00 -2.610297335555266329e+00
2.493965999008542767e+00 -2.629054706934865759e+00
2.574416515105592662e+00 -2.664043608343417358e+00
2.654867031202642558e+00 -2.658043525585561895e+00
2.735317547299692009e+00 -2.628385159468393795e+00
2.815768063396741905e+00 -2.622673549015756223e+00
2.896218579493791356e+00 -2.632160298515121788e+00
2.976669095590841252e+00 -2.619191754867512767e+00
3.057119611687890703e+00 -2.616671810015931410e+00
3.137570127784940599e+00 -2.624704065769511097e+00
3.218020643881990495e+00 -2.626878847883247214e+00
3.298471159979039946e+00 -2.611604800498746215e+00
3.378921676076090286e+00 -2.577667995180173754e+00
3.459372192173139737e+00 -2.560425615224130702e+00
3.539822708270189189e+00 -2.551297032091875749e+00
3.620273224367239528e+00 -2.591835915202507667e+00
3.700723740464288980e+00 -2.653277728723735684e+00
3.781174256561339320e+00 -2.666387283838755007e+00
3.861624772658388771e+00 -2.679607444385666781e+00
3.942075288755438223e+00 -2.696966369706824906e+00
4.022525804852488562e+00 -2.698239006303631449e+00
4.102976320949538014e+00 -2.668316723422241576e+00
4.183426837046588354e+00 -2.650405348976316411e+00
4.263877353143637805e+00 -2.638758157660304082e+00
4.344327869240687257e+00 -2.637516161071182363e+00
4.424778385337737596e+00 -2.618427815121681768e+00
4.505228901434787048e+00 -2.622473735924224059e+00
4.585679417531836499e+00 -2.655534751091573220e+00
4.666129933628886839e+00 -2.701708252770933516e+00
4.746580449725936290e+00 -2.655909569035792561e+00
4.827030965822985742e+00 -2.590343136016465042e+00
4.907481481920036082e+00 -2.593873241044709399e+00
4.987931998017085533e+00 -2.618045397129645568e+00
5.068382514114135873e+00 -2.634753497966420888e+00
5.148833030211185324e+00 -2.660759444402787555e+00
5.229283546308234776e+00 -2.682211081265992281e+00
5.309734062405285115e+00 -2.708087725704611426e+00
5.390184578502334567e+00 -2.689594260664750713e+00
5.470635094599384018e+00 -2.693378214870053355e+00
5.551085610696433470e+00 -2.712266121317655987e+00
5.631536126793483810e+00 -2.711229094554396646e+00
5.711986642890533261e+00 -2.689480440315254572e+00
5.792437158987582713e+00 -2.681110892100804666e+00
5.872887675084633052e+00 -2.684590024983380729e+00
5.953338191181682504e+00 -2.700469798971831814e+00
6.033788707278731955e+00 -2.719946019346697774e+00
6.114239223375781407e+00 -2.730343419141435302e+00
6.194689739472831747e+00 -2.742758287723920940e+00
6.275140255569881198e+00 -2.711116811894934919e+00
6.355590771666931538e+00 -2.694146573785148657e+00
6.436041287763980989e+00 -2.683706938155328903e+00
6.516491803861030441e+00 -2.669332731505907663e+00
6.596942319958079892e+00 -2.678330697184073905e+00
6.677392836055131120e+00 -2.675917767823461357e+00
6.757843352152180572e+00 -2.667446325009844355e+00
6.838293868249230023e+00 -2.691656165861083139e+00
6.918744384346279475e+00 -2.738823277350213026e+00
6.999194900443328926e+00 -2.732778829900194495e+00
7.079645416540378378e+00 -2.722391155702243548e+00
7.160095932637429605e+00 -2.724230107095234388e+00
7.240546448734479057e+00 -2.738975726680879408e+00
7.320996964831528508e+00 -2.714437942736326992e+00
7.401447480928577960e+00 -2.705148519255812456e+00
7.481897997025627411e+00 -2.733403049048012790e+00
7.562348513122678639e+00 -2.767362862850939464e+00
7.642799029219728091e+00 -2.764081459509093452e+00
7.723249545316777542e+00 -2.729232099675660272e+00
7.803700061413826994e+00 -2.709367252455673558e+00
7.884150577510876445e+00 -2.707551369444802347e+00
7.964601093607927673e+00 -2.711957002615553947e+00
8.045051609704977125e+00 -2.731560191396848136e+00
8.125502125802025688e+00 -2.760150065695273547e+00
8.205952641899076028e+00 -2.752083846579805204e+00
8.286403157996124591e+00 -2.745670858458182817e+00
8.366853674093176707e+00 -2.760973580501063118e+00
8.447304190190225270e+00 -2.767139180134009280e+00
8.527754706287275610e+00 -2.755291088840235325e+00
8.608205222384324173e+00 -2.764458681421257946e+00
8.688655738481374513e+00 -2.764633866356455361e+00
8.769106254578423076e+00 -2.750763582371943627e+00
8.849556770675475192e+00 -2.772425242525633493e+00
8.930007286772523756e+00 -2.805977437429682197e+00
9.010457802869574095e+00 -2.822314815879445771e+00
9.090908318966622659e+00 -2.818787258185978306e+00
9.171358835063672998e+00 -2.783852474592614090e+00
9.251809351160723338e+00 -2.761375837604116867e+00
9.332259867257773678e+00 -2.758841215464053587e+00
9.412710383354822241e+00 -2.800520628227865405e+00
9.493160899451872581e+00 -2.828724955297530208e+00
9.573611415548921144e+00 -2.823430687437606945e+00
9.654061931645971484e+00 -2.802694532493291479e+00
9.734512447743021823e+00 -2.795567343339647959e+00
9.814962963840072163e+00 -2.783580866623418526e+00
9.895413479937120727e+00 -2.767941798062813152e+00
9.975863996034171066e+00 -2.771546935650900600e+00
1.005631451213121963e+01 -2.795031485585676823e+00
1.013676502822827175e+01 -2.824832121507436344e+00
1.021721554432532031e+01 -2.842801959391366040e+00
1.029766606042237065e+01 -2.848620730303259130e+00
