0.000000000000000000e+00 -1.549019599857431873e-01
8.045051609704977069e-02 -1.871181466921874870e-01
1.609010321940995414e-01 -5.049168414757225776e-01
2.413515482911492982e-01 -1.685417189259844850e+00
3.218020643881990828e-01 -2.561758884555313642e+00
4.022525804852488118e-01 -2.550301771667605966e+00
4.827030965822985964e-01 -2.387623261091134985e+00
5.631536126793483810e-01 -2.324209658276210178e+00
6.436041287763981655e-01 -2.344394492870994107e+00
7.240546448734478391e-01 -2.458239994680083473e+00
8.045051609704976237e-01 -2.607004889937671432e+00
8.849556770675472972e-01 -2.599158017007831667e+00
9.654061931645971928e-01 -2.544651132032968555e+00
1.045856709261647088e+00 -2.579926224862524986e+00
1.126307225358696762e+00 -2.607425228730831268e+00
1.206757741455746435e+00 -2.617337709709639082e+00
1.287208257552796331e+00 -2.675887886089693968e+00
1.367658773649846005e+00 -2.771422937903924133e+00
1.448109289746895678e+00 -2.802889398579349933e+00
1.528559805843945352e+00 -2.797074444022149109e+00
1.609010321940995247e+00 -2.770019043144408499e+00
1.689460838038045143e+00 -2.690226268615544480e+00
1.769911354135094594e+00 -2.625966742214389082e+00
1.850361870232144490e+00 -2.613881359450625830e+00
1.930812386329194386e+00 -2.638698234713399593e+00
2.011262902426244281e+00 -2.658076090996220664e+00
2.091713418523294177e+00 -2.682557889805250451e+00
2.172163934620343628e+00 -2.643786243994854956e+00
2.252614450717393524e+00 -2.588452061510439162e+00
2.333064966814443419e+00 -2.540166713000095111e+00
2.413515482911492871e+00 -2.491907723556085141e+00
2.493965999008542767e+00 -2.475664433483310223e+00
2.574416515105592662e+00 -2.485550702644982124e+00
2.654867031202642558e+00 -2.521330822289320928e+00
2.735317547299692009e+00 -2.576557559609585990e+00
2.815768063396741905e+00 -2.587019829028987861e+00
2.896218579493791356e+00 -2.595034919146963936e+00
2.976669095590841252e+00 -2.632446533055012861e+00
3.057119611687890703e+00 -2.695695521247087889e+00
3.137570127784940599e+00 -2.731371663123324911e+00
3.218020643881990495e+00 -2.711314684592503799e+00
3.298471159979039946e+00 -2.671431919738225691e+00
3.378921676076090286e+00 -2.665356202306837119e+00
3.459372192173139737e+00 -2.702131438495118498e+00
3.539822708270189189e+00 -2.719207893789796771e+00
3.620273224367239528e+00 -2.698148791275591041e+00
3.700723740464288980e+00 -2.669447586591364274e+00
3.781174256561339320e+00 -2.640699610542016629e+00
3.861624772658388771e+00 -2.618628314870495633e+00
3.942075288755438223e+00 -2.608739174605648525e+00
4.022525804852488562e+00 -2.622244236290160124e+00
4.102976320949538014e+00 -2.637235422645097138e+00
4.183426837046588354e+00 -2.627982525450221374e+00
4.263877353143637805e+00 -2.627780598619957164e+00
4.344327869240687257e+00 -2.657964079284401482e+00
4.424778385337737596e+00 -2.676087935592946554e+00
4.505228901434787048e+00 -2.677393284654161487e+00
4.585679417531836499e+00 -2.692338279269858692e+00
4.666129933628886839e+00 -2.667808848841846547e+00
4.746580449725936290e+00 -2.660853724850463564e+00
4.827030965822985742e+00 -2.667286777859354530e+00
4.907481481920036082e+00 -2.679157480526653146e+00
4.987931998017085533e+00 -2.656710703301411236e+00
5.068382514114135873e+00 -2.630746472057207797e+00
5.148833030211185324e+00 -2.618180530561030839e+00
5.229283546308234776e+00 -2.580130177903246835e+00
5.309734062405285115e+00 -2.560808844524865791e+00
5.390184578502334567e+00 -2.592377162448482153e+00
5.470635094599384018e+00 -2.637352176186197106e+00
5.551085610696433470e+00 -2.660379337231170815e+00
5.631536126793483810e+00 -2.659918920494573680e+00
5.711986642890533261e+00 -2.665292603642277935e+00
5.792437158987582713e+00 -2.667376944358563762e+00
5.872887675084633052e+00 -2.688174828049623599e+00
5.953338191181682504e+00 -2.678151623364269263e+00
6.033788707278731955e+00 -2.654530514302326338e+00
6.114239223375781407e+00 -2.660780077885926076e+00
6.194689739472831747e+00 -2.690194582396730816e+00
6.275140255569881198e+00 -2.737688597820545855e+00
6.355590771666931538e+00 -2.769692163939680984e+00
6.436041287763980989e+00 -2.779381067134008010e+00
6.516491803861030441e+00 -2.762696650105594287e+00
6.596942319958079892e+00 -2.736848449889986323e+00
6.677392836055131120e+00 -2.699987679705739829e+00
6.757843352152180572e+00 -2.657500131636436169e+00
6.838293868249230023e+00 -2.630930989400865894e+00
6.918744384346279475e+00 -2.652281719391432979e+00
6.999194900443328926e+00 -2.688403832611470978e+00
7.079645416540378378e+00 -2.707267567291460786e+00
7.160095932637429605e+00 -2.700704377989999294e+00
7.240546448734479057e+00 -2.691762659247360912e+00
7.320996964831528508e+00 -2.699291423050350414e+00
7.401447480928577960e+00 -2.718633522308290473e+00
7.481897997025627411e+00 -2.720613798393711757e+00
7.562348513122678639e+00 -2.722376526701803190e+00
7.642799029219728091e+00 -2.719488887121295217e+00
7.723249545316777542e+00 -2.710133852629643680e+00
7.803700061413826994e+00 -2.721328515728696829e+00
7.884150577510876445e+00 -2.725670816018765930e+00
7.964601093607927673e+00 -2.710418029653779204e+00
8.045051609704977125e+00 -2.695314616890874149e+00
8.125502125802025688e+00 -2.665091840355086283e+00
8.205952641899076028e+00 -2.658915857830078000e+00
8.286403157996124591e+00 -2.697681159767062464e+00
8.366853674093176707e+00 -2.747115662481587339e+00
8.447304190190225270e+00 -2.746042377786106492e+00
8.527754706287275610e+00 -2.710608486416907326e+00
8.608205222384324173e+00 -2.698851721372737877e+00
8.688655738481374513e+00 -2.727916015385031479e+00
8.769106254578423076e+00 -2.788251583846599768e+00
8.849556770675475192e+00 -2.804763799715200179e+00
8.930007286772523756e+00 -2.773968515720381056e+00
9.010457802869574095e+00 -2.761660115263891324e+00
9.090908318966622659e+00 -2.773439936508136139e+00
9.171358835063672998e+00 -2.793948510742804814e+00
9.251809351160723338e+00 -2.793262055028657542e+00
9.332259867257773678e+00 -2.773965272799414628e+00
9.412710383354822241e+00 -2.743926385977441207e+00
9.493160899451872581e+00 -2.730612702126567370e+00
9.573611415548921144e+00 -2.735180123740258651e+00
9.654061931645971484e+00 -2.747817116021443518e+00
9.734512447743021823e+00 -2.751463477584784822e+00
9.814962963840072163e+00 -2.764723318466657087e+00
9.895413479937120727e+00 -2.793481989706712465e+00
9.975863996034171066e+00 -2.831516148881751072e+00
1.005631451213121963e+01 -2.852656888002818913e+00
1.013676502822827175e+01 -2.837713314853559599e+00
1.021721554432532031e+01 -2.804313444647658304e+00
1.029766606042237065e+01 -2.814939449403734084e+00
