0.000000000000000000e+00 -1.549019599857431873e-01
8.045051609704977069e-02 -3.954923516481641532e-01
1.609010321940995414e-01 -1.324321532124683509e+00
2.413515482911492982e-01 -4.639378749846382100e+00
3.218020643881990828e-01 -5.209601865770822293e+00
4.022525804852488118e-01 -4.556463404310440168e+00
4.827030965822985964e-01 -4.378018832351539658e+00
5.631536126793483810e-01 -4.426151527172594413e+00
6.436041287763981655e-01 -4.663919382376184863e+00
7.240546448734478391e-01 -4.899187814689124565e+00
8.045051609704976237e-01 -4.982136790698038276e+00
8.849556770675472972e-01 -5.017649086877334241e+00
9.654061931645971928e-01 -5.165507920142489162e+00
1.045856709261647088e+00 -5.265813134052589106e+00
1.126307225358696762e+00 -5.215300743336903189e+00
1.206757741455746435e+00 -5.215047670335840380e+00
1.287208257552796331e+00 -5.160244092502514590e+00
1.367658773649846005e+00 -5.100537150324551128e+00
1.448109289746895678e+00 -5.108747505404896749e+00
1.528559805843945352e+00 -5.078386026633400441e+00
1.609010321940995247e+00 -5.079474655954903994e+00
1.689460838038045143e+00 -5.221832058593208536e+00
1.769911354135094594e+00 -5.400999220413361002e+00
1.850361870232144490e+00 -5.447143196811113697e+00
1.930812386329194386e+00 -5.330044941669987324e+00
2.011262902426244281e+00 -5.175457229636903911e+00
2.091713418523294177e+00 -5.079086374622955979e+00
2.172163934620343628e+00 -5.117830835845364135e+00
2.252614450717393524e+00 -5.223383123452325805e+00
2.333064966814443419e+00 -5.232152053970770211e+00
2.413515482911492871e+00 -5.092110153664468619e+00
2.493965999008542767e+00 -5.047399805627917679e+00
2.574416515105592662e+00 -5.181653522407279944e+00
2.654867031202642558e+00 -5.304977824698999811e+00
2.735317547299692009e+00 -5.310965705781182322e+00
2.815768063396741905e+00 -5.242248524787959774e+00
2.896218579493791356e+00 -5.247178782303937083e+00
2.976669095590841252e+00 -5.326676492351892556e+00
3.057119611687890703e+00 -5.348880520702984143e+00
3.137570127784940599e+00 -5.349639673149854779e+00
3.218020643881990495e+00 -5.370027652959489473e+00
3.298471159979039946e+00 -5.382687506220356966e+00
3.378921676076090286e+00 -5.404506355221025515e+00
3.459372192173139737e+00 -5.418086836410920704e+00
3.539822708270189189e+00 -5.374627065380341406e+00
3.620273224367239528e+00 -5.323552665491577685e+00
3.700723740464288980e+00 -5.277667533482729212e+00
3.781174256561339320e+00 -5.311611406920387246e+00
3.861624772658388771e+00 -5.276765388825278791e+00
3.942075288755438223e+00 -5.268401356733819263e+00
4.022525804852488562e+00 -5.299655378772243353e+00
4.102976320949538014e+00 -5.250645535553867482e+00
4.183426837046588354e+00 -5.200960705010560403e+00
4.263877353143637805e+00 -5.128632018851643437e+00
4.344327869240687257e+00 -5.104535769346244756e+00
4.424778385337737596e+00 -5.139094329672041717e+00
4.505228901434787048e+00 -5.185612053625539453e+00
4.585679417531836499e+00 -5.209123232026958483e+00
4.666129933628886839e+00 -5.231653633882634935e+00
4.746580449725936290e+00 -5.284884834545442445e+00
4.827030965822985742e+00 -5.319641049946764788e+00
4.907481481920036082e+00 -5.367102285388428484e+00
4.987931998017085533e+00 -5.357536995712008476e+00
5.068382514114135873e+00 -5.289673509127691631e+00
5.148833030211185324e+00 -5.243504414795370216e+00
5.229283546308234776e+00 -5.301172032988706206e+00
5.309734062405285115e+00 -5.366758403387024146e+00
5.390184578502334567e+00 -5.353554743045371822e+00
5.470635094599384018e+00 -5.330573333950730408e+00
5.551085610696433470e+00 -5.398965745176148801e+00
5.631536126793483810e+00 -5.465216465114032474e+00
5.711986642890533261e+00 -5.479017242722244774e+00
5.792437158987582713e+00 -5.467714978523880553e+00
5.872887675084633052e+00 -5.412125045131374712e+00
5.953338191181682504e+00 -5.348782900232146531e+00
6.033788707278731955e+00 -5.265802378536251105e+00
6.114239223375781407e+00 -5.206858210974280254e+00
6.194689739472831747e+00 -5.238861515939130520e+00
6.275140255569881198e+00 -5.297510600427052019e+00
6.355590771666931538e+00 -5.293191452201200242e+00
6.436041287763980989e+00 -5.299022318019575906e+00
6.516491803861030441e+00 -5.317940360064741689e+00
6.596942319958079892e+00 -5.336104419909135643e+00
6.677392836055131120e+00 -5.423415704716160413e+00
6.757843352152180572e+00 -5.517710415188090245e+00
6.838293868249230023e+00 -5.512583256100298534e+00
6.918744384346279475e+00 -5.445651361007648461e+00
6.999194900443328926e+00 -5.420488097068980160e+00
7.079645416540378378e+00 -5.427370393418476269e+00
7.160095932637429605e+00 -5.450598608925664834e+00
7.240546448734479057e+00 -5.467759556586913483e+00
7.320996964831528508e+00 -5.456927745623858073e+00
7.401447480928577960e+00 -5.468635366236512141e+00
7.481897997025627411e+00 -5.445036212118815833e+00
7.562348513122678639e+00 -5.411680003332875799e+00
7.642799029219728091e+00 -5.447105035211661672e+00
7.723249545316777542e+00 -5.479557772558697692e+00
7.803700061413826994e+00 -5.474226397096524366e+00
7.884150577510876445e+00 -5.457692467569613015e+00
7.964601093607927673e+00 -5.512248598008445022e+00
8.045051609704977125e+00 -5.553589810842439967e+00
8.125502125802025688e+00 -5.554443447377788168e+00
8.205952641899076028e+00 -5.546653651782330385e+00
8.286403157996124591e+00 -5.556964727920387759e+00
8.366853674093176707e+00 -5.578699916215826171e+00
8.447304190190225270e+00 -5.608653451864645589e+00
8.527754706287275610e+00 -5.562343509309781275e+00
8.608205222384324173e+00 -5.547759497002707541e+00
8.688655738481374513e+00 -5.511236917147438241e+00
8.769106254578423076e+00 -5.489618111286348245e+00
8.849556770675475192e+00 -5.502060062207373647e+00
8.930007286772523756e+00 -5.497758697321313726e+00
9.010457802869574095e+00 -5.529211683769712060e+00
9.090908318966622659e+00 -5.575252957176129343e+00
9.171358835063672998e+00 -5.626975751389993619e+00
9.251809351160723338e+00 -5.622456526716029579e+00
9.332259867257773678e+00 -5.605459956790428855e+00
9.412710383354822241e+00 -5.599678765354407339e+00
9.493160899451872581e+00 -5.591475704071619646e+00
9.573611415548921144e+00 -5.572983438927080257e+00
9.654061931645971484e+00 -5.597757832342959539e+00
9.734512447743021823e+00 -5.617377813461451375e+00
9.814962963840072163e+00 -5.613954595204369014e+00
9.895413479937120727e+00 -5.595740081277623901e+00
9.975863996034171066e+00 -5.558049423345021722e+00
1.005631451213121963e+01 -5.587807519092119257e+00
1.013676502822827175e+01 -5.647610789954202737e+00
1.021721554432532031e+01 -5.660793081683301864e+00
1.029766606042237065e+01 -5.681682064051873482e+00
