0.000000000000000000e+00 -1.549019599857431873e-01
8.045051609704977069e-02 -1.931042062858379371e-01
1.609010321940995414e-01 -5.487502745497693235e-01
2.413515482911492982e-01 -1.653282176552182792e+00
3.218020643881990828e-01 -2.388886991670637450e+00
4.022525804852488118e-01 -2.244969351876093810e+00
4.827030965822985964e-01 -2.131139477751968325e+00
5.631536126793483810e-01 -2.051819770850864089e+00
6.436041287763981655e-01 -2.095671258171105222e+00
7.240546448734478391e-01 -2.279683470674613854e+00
8.045051609704976237e-01 -2.503341218494815390e+00
8.849556770675472972e-01 -2.630706655354025703e+00
9.654061931645971928e-01 -2.645552982860950753e+00
1.045856709261647088e+00 -2.633260964584168473e+00
1.126307225358696762e+00 -2.625021408525208599e+00
1.206757741455746435e+00 -2.608860488362863439e+00
1.287208257552796331e+00 -2.617295400789461990e+00
1.367658773649846005e+00 -2.695597507109436908e+00
1.448109289746895678e+00 -2.765927206211298284e+00
1.528559805843945352e+00 -2.778230723037461658e+00
1.609010321940995247e+00 -2.703088935783579672e+00
1.689460838038045143e+00 -2.631171162923179541e+00
1.769911354135094594e+00 -2.603836122737691827e+00
1.850361870232144490e+00 -2.565724961184315589e+00
1.930812386329194386e+00 -2.509463083247691628e+00
2.011262902426244281e+00 -2.485382416010141426e+00
2.091713418523294177e+00 -2.502860820251261664e+00
2.172163934620343628e+00 -2.538388797456331503e+00
2.252614450717393524e+00 -2.582044783760689466e+00
2.333064966814443419e+00 -2.614221708576796477e+00
2.413515482911492871e+00 -2.580510411424699058e+00
2.493965999008542767e+00 -2.536128845575785551e+00
2.574416515105592662e+00 -2.563482804960199868e+00
2.654867031202642558e+00 -2.640246412200035309e+00
2.735317547299692009e+00 -2.660823652977595710e+00
2.815768063396741905e+00 -2.643032870877941143e+00
2.896218579493791356e+00 -2.639246505713768176e+00
2.976669095590841252e+00 -2.630638843911040858e+00
3.057119611687890703e+00 -2.597534256852293666e+00
3.137570127784940599e+00 -2.597581616206964039e+00
3.218020643881990495e+00 -2.598222193048074224e+00
3.298471159979039946e+00 -2.617931816534252665e+00
3.378921676076090286e+00 -2.623831204317499832e+00
3.459372192173139737e+00 -2.636474982465184524e+00
3.539822708270189189e+00 -2.653106929598622266e+00
3.620273224367239528e+00 -2.645160902517605273e+00
3.700723740464288980e+00 -2.615951997394131645e+00
3.781174256561339320e+00 -2.615646484753028300e+00
3.861624772658388771e+00 -2.605778926895392367e+00
3.942075288755438223e+00 -2.590705973107117810e+00
4.022525804852488562e+00 -2.583165591554320795e+00
4.102976320949538014e+00 -2.589015354861635032e+00
4.183426837046588354e+00 -2.598092885320729462e+00
4.263877353143637805e+00 -2.614652993167214667e+00
4.344327869240687257e+00 -2.632426434120069825e+00
4.424778385337737596e+00 -2.657822249171331475e+00
4.505228901434787048e+00 -2.704143101306534458e+00
4.585679417531836499e+00 -2.732725670022155384e+00
4.666129933628886839e+00 -2.717662034575665686e+00
4.746580449725936290e+00 -2.675551807760555789e+00
4.827030965822985742e+00 -2.609007109730773877e+00
4.907481481920036082e+00 -2.613302025558740471e+00
4.987931998017085533e+00 -2.664231438639736549e+00
5.068382514114135873e+00 -2.693027649873394491e+00
5.148833030211185324e+00 -2.670140239661974668e+00
5.229283546308234776e+00 -2.626092073716574049e+00
5.309734062405285115e+00 -2.607900586305002655e+00
5.390184578502334567e+00 -2.600711740611160838e+00
5.470635094599384018e+00 -2.593433150214623506e+00
5.551085610696433470e+00 -2.618026017981764042e+00
5.631536126793483810e+00 -2.651160197136472441e+00
5.711986642890533261e+00 -2.665294121070539646e+00
5.792437158987582713e+00 -2.649914676692062709e+00
5.872887675084633052e+00 -2.614395685177206552e+00
5.953338191181682504e+00 -2.599755258910574796e+00
6.033788707278731955e+00 -2.622210988878807214e+00
6.114239223375781407e+00 -2.625848485188952086e+00
6.194689739472831747e+00 -2.626127033464961347e+00
6.275140255569881198e+00 -2.672381980315830408e+00
6.355590771666931538e+00 -2.704834089996768220e+00
6.436041287763980989e+00 -2.712148525170376079e+00
6.516491803861030441e+00 -2.722450550108417300e+00
6.596942319958079892e+00 -2.728111629118131098e+00
6.677392836055131120e+00 -2.732242924297101361e+00
6.757843352152180572e+00 -2.713266531960861094e+00
6.838293868249230023e+00 -2.696649808446572205e+00
6.918744384346279475e+00 -2.690881421858176026e+00
6.999194900443328926e+00 -2.695406557878190501e+00
7.079645416540378378e+00 -2.704123396114868072e+00
7.160095932637429605e+00 -2.725078888520723552e+00
7.240546448734479057e+00 -2.735388998509454161e+00
7.320996964831528508e+00 -2.714707427029048326e+00
7.401447480928577960e+00 -2.697196573289783128e+00
7.481897997025627411e+00 -2.713484716082005921e+00
7.562348513122678639e+00 -2.723372716211379441e+00
7.642799029219728091e+00 -2.732107720739095580e+00
7.723249545316777542e+00 -2.722789891937813067e+00
7.803700061413826994e+00 -2.710539262212047440e+00
7.884150577510876445e+00 -2.694110566725939293e+00
7.964601093607927673e+00 -2.714886229643413529e+00
8.045051609704977125e+00 -2.732206386382205476e+00
8.125502125802025688e+00 -2.741645395479327618e+00
8.205952641899076028e+00 -2.742747407806610305e+00
8.286403157996124591e+00 -2.750830233941922387e+00
8.366853674093176707e+00 -2.746866166262599052e+00
8.447304190190225270e+00 -2.742111255455360830e+00
8.527754706287275610e+00 -2.720257688952934849e+00
8.608205222384324173e+00 -2.717055121494574177e+00
8.688655738481374513e+00 -2.737020809759937112e+00
8.769106254578423076e+00 -2.760144735110818370e+00
8.849556770675475192e+00 -2.763875903029939796e+00
8.930007286772523756e+00 -2.755415488723200745e+00
9.010457802869574095e+00 -2.725939967312211554e+00
9.090908318966622659e+00 -2.715715296972298187e+00
9.171358835063672998e+00 -2.724524484009465120e+00
9.251809351160723338e+00 -2.733506563310183157e+00
9.332259867257773678e+00 -2.736802827656448667e+00
9.412710383354822241e+00 -2.730577566958707347e+00
9.493160899451872581e+00 -2.732448097478995308e+00
9.573611415548921144e+00 -2.760245471651150417e+00
9.654061931645971484e+00 -2.775261724966080479e+00
9.734512447743021823e+00 -2.776080394101554827e+00
9.814962963840072163e+00 -2.779595365676890140e+00
9.895413479937120727e+00 -2.801119871085951729e+00
9.975863996034171066e+00 -2.811831277811146723e+00
1.005631451213121963e+01 -2.783512381741857666e+00
1.013676502822827175e+01 -2.751608705629170259e+00
1.021721554432532031e+01 -2.736511409864760935e+00
1.029766606042237065e+01 -2.746302895156527590e+00
