0.000000000000000000e+00 -1.549019599857431873e-01
8.045051609704977069e-02 -1.899195897268645961e-01
1.609010321940995414e-01 -4.987524813118647815e-01
2.413515482911492982e-01 -1.121447455108869118e+00
3.218020643881990828e-01 -1.449583386117041517e+00
4.022525804852488118e-01 -1.698997596725262849e+00
4.827030965822985964e-01 -2.070884775402453304e+00
5.631536126793483810e-01 -2.432044879508978408e+00
6.436041287763981655e-01 -2.720051625079498159e+00
7.240546448734478391e-01 -2.939856214093245601e+00
8.045051609704976237e-01 -3.146976667181144549e+00
8.849556770675472972e-01 -3.283516748678413588e+00
9.654061931645971928e-01 -3.319517506593950618e+00
1.045856709261647088e+00 -3.357355428617396775e+00
1.126307225358696762e+00 -3.373159666885495067e+00
1.206757741455746435e+00 -3.345552926668146743e+00
1.287208257552796331e+00 -3.364442031264107680e+00
1.367658773649846005e+00 -3.434960722428321400e+00
1.448109289746895678e+00 -3.425055356404720808e+00
1.528559805843945352e+00 -3.336524898791511706e+00
1.609010321940995247e+00 -3.264967296493164639e+00
1.689460838038045143e+00 -3.181728608220859122e+00
1.769911354135094594e+00 -3.138272265088731139e+00
1.850361870232144490e+00 -3.074712148932686073e+00
1.930812386329194386e+00 -2.987106135078827052e+00
2.011262902426244281e+00 -2.902358685350222345e+00
2.091713418523294177e+00 -2.830116021628989120e+00
2.172163934620343628e+00 -2.786205637935982526e+00
2.252614450717393524e+00 -2.775377986672345809e+00
2.333064966814443419e+00 -2.788316191414298650e+00
2.413515482911492871e+00 -2.826289794981541981e+00
2.493965999008542767e+00 -2.905709260916985226e+00
2.574416515105592662e+00 -2.952096186334584260e+00
2.654867031202642558e+00 -2.963262278727043064e+00
2.735317547299692009e+00 -3.009393378061120394e+00
2.815768063396741905e+00 -3.015890187439845160e+00
2.896218579493791356e+00 -2.953064625007017607e+00
2.976669095590841252e+00 -2.901190889963379593e+00
3.057119611687890703e+00 -2.894823638392665099e+00
3.137570127784940599e+00 -2.966415619396876924e+00
3.218020643881990495e+00 -3.029013398327039308e+00
3.298471159979039946e+00 -3.033308919722641939e+00
3.378921676076090286e+00 -2.982203094153763168e+00
3.459372192173139737e+00 -2.939367269093255519e+00
3.539822708270189189e+00 -2.914208479129388518e+00
3.620273224367239528e+00 -2.919257049308243701e+00
3.700723740464288980e+00 -2.933830950745297095e+00
3.781174256561339320e+00 -2.964912727207843712e+00
3.861624772658388771e+00 -2.977128321716989046e+00
3.942075288755438223e+00 -2.951592709528475744e+00
4.022525804852488562e+00 -2.948021856992405709e+00
4.102976320949538014e+00 -2.984591874955554225e+00
4.183426837046588354e+00 -3.004065890095855895e+00
4.263877353143637805e+00 -3.012391339969315407e+00
4.344327869240687257e+00 -3.017651866271540584e+00
4.424778385337737596e+00 -3.008878509418909886e+00
4.505228901434787048e+00 -3.003976552052388005e+00
4.585679417531836499e+00 -3.007310923319706397e+00
4.666129933628886839e+00 -2.964803603409168709e+00
4.746580449725936290e+00 -2.905788192388220281e+00
4.827030965822985742e+00 -2.878303119062540993e+00
4.907481481920036082e+00 -2.909399889715504006e+00
4.987931998017085533e+00 -2.945251527756554744e+00
5.068382514114135873e+00 -2.943127514215003959e+00
5.148833030211185324e+00 -2.923186991496656617e+00
5.229283546308234776e+00 -2.913823337845947936e+00
5.309734062405285115e+00 -2.917797467962967239e+00
5.390184578502334567e+00 -2.922630433562146468e+00
5.470635094599384018e+00 -2.933423933026818808e+00
5.551085610696433470e+00 -2.961772911701938238e+00
5.631536126793483810e+00 -2.988183348007009688e+00
5.711986642890533261e+00 -3.013589394260847598e+00
5.792437158987582713e+00 -3.002844899942199053e+00
5.872887675084633052e+00 -2.960045120706299215e+00
5.953338191181682504e+00 -2.925657906183147361e+00
6.033788707278731955e+00 -2.913022020005347823e+00
6.114239223375781407e+00 -2.907398677144550359e+00
6.194689739472831747e+00 -2.906419054808037306e+00
6.275140255569881198e+00 -2.927851565570895875e+00
6.355590771666931538e+00 -2.966747229860439372e+00
6.436041287763980989e+00 -2.996764546427392428e+00
6.516491803861030441e+00 -2.999774509797099142e+00
6.596942319958079892e+00 -3.011296875252024829e+00
6.677392836055131120e+00 -3.022658858274038796e+00
6.757843352152180572e+00 -3.030161088802627134e+00
6.838293868249230023e+00 -3.025664079499423842e+00
6.918744384346279475e+00 -3.029249410932295383e+00
6.999194900443328926e+00 -3.014757513623081753e+00
7.079645416540378378e+00 -2.990141582228040384e+00
7.160095932637429605e+00 -2.986939200539561856e+00
7.240546448734479057e+00 -2.995770280732224844e+00
7.320996964831528508e+00 -3.006627193256632857e+00
7.401447480928577960e+00 -3.016613327664805944e+00
7.481897997025627411e+00 -2.989979489536115143e+00
7.562348513122678639e+00 -2.972787672927581504e+00
7.642799029219728091e+00 -2.974377967730920336e+00
7.723249545316777542e+00 -2.987508867200292073e+00
7.803700061413826994e+00 -3.009242254961224550e+00
7.884150577510876445e+00 -3.020174574183108085e+00
7.964601093607927673e+00 -3.045899063335654411e+00
8.045051609704977125e+00 -3.059189231350398330e+00
8.125502125802025688e+00 -3.039708708936721848e+00
8.205952641899076028e+00 -3.025257225837759911e+00
8.286403157996124591e+00 -3.015464370616358636e+00
8.366853674093176707e+00 -3.017606839171427691e+00
8.447304190190225270e+00 -3.031786360242572531e+00
8.527754706287275610e+00 -3.039566664189066181e+00
8.608205222384324173e+00 -3.044883228389948293e+00
8.688655738481374513e+00 -3.062513758686140619e+00
8.769106254578423076e+00 -3.078110693332720249e+00
8.849556770675475192e+00 -3.086746698626347651e+00
8.930007286772523756e+00 -3.083425506390505610e+00
9.010457802869574095e+00 -3.072692887246834648e+00
9.090908318966622659e+00 -3.084851007579101800e+00
9.171358835063672998e+00 -3.089053449513473382e+00
9.251809351160723338e+00 -3.102913670850020011e+00
9.332259867257773678e+00 -3.104198752437176356e+00
9.412710383354822241e+00 -3.085870226762969626e+00
9.493160899451872581e+00 -3.047094598865340842e+00
9.573611415548921144e+00 -3.045119515887021677e+00
9.654061931645971484e+00 -3.070824668491262344e+00
9.734512447743021823e+00 -3.089701255199629681e+00
9.814962963840072163e+00 -3.096110727505426485e+00
9.895413479937120727e+00 -3.082819869011371505e+00
9.975863996034171066e+00 -3.076871695781389970e+00
1.005631451213121963e+01 -3.088452673464264997e+00
1.013676502822827175e+01 -3.121835339057129399e+00
1.021721554432532031e+01 -3.136490227472283010e+00
1.029766606042237065e+01 -3.120967386800171717e+00
