0.000000000000000000e+00 -1.549019599857431873e-01
8.045051609704977069e-02 -3.821982819556830613e-01
1.609010321940995414e-01 -1.042008411322839612e+00
2.413515482911492982e-01 -2.005120697696117560e+00
3.218020643881990828e-01 -2.330576572452678796e+00
4.022525804852488118e-01 -2.986871319897253851e+00
4.827030965822985964e-01 -3.794958112650570481e+00
5.631536126793483810e-01 -4.686004942418361630e+00
6.436041287763981655e-01 -5.188495465831667985e+00
7.240546448734478391e-01 -5.571299965400368315e+00
8.045051609704976237e-01 -5.817006650999177353e+00
8.849556770675472972e-01 -5.939472200170834881e+00
9.654061931645971928e-01 -6.001606605580860787e+00
1.045856709261647088e+00 -6.097354318034748033e+00
1.126307225358696762e+00 -6.234726703776538592e+00
1.206757741455746435e+00 -6.321380584128677427e+00
1.287208257552796331e+00 -6.436091311638715950e+00
1.367658773649846005e+00 -6.611200265577290125e+00
1.448109289746895678e+00 -6.736066477283304543e+00
1.528559805843945352e+00 -6.681117901794316971e+00
1.609010321940995247e+00 -6.644860784915216811e+00
1.689460838038045143e+00 -6.565640437593261325e+00
1.769911354135094594e+00 -6.343880277654310618e+00
1.850361870232144490e+00 -6.168725333332787386e+00
1.930812386329194386e+00 -5.963602586210981826e+00
2.011262902426244281e+00 -5.809306105553908139e+00
2.091713418523294177e+00 -5.638810266984007669e+00
2.172163934620343628e+00 -5.575472231781667176e+00
2.252614450717393524e+00 -5.671847992742955924e+00
2.333064966814443419e+00 -5.799215303009159328e+00
2.413515482911492871e+00 -5.844154685477465527e+00
2.493965999008542767e+00 -5.906781428884104734e+00
2.574416515105592662e+00 -5.969331764650412708e+00
2.654867031202642558e+00 -5.967486683385433643e+00
2.735317547299692009e+00 -5.960573175598115725e+00
2.815768063396741905e+00 -5.992096557581315430e+00
2.896218579493791356e+00 -6.112508142936793121e+00
2.976669095590841252e+00 -6.195384271184700253e+00
3.057119611687890703e+00 -6.131486475582551776e+00
3.137570127784940599e+00 -6.003295243256031810e+00
3.218020643881990495e+00 -5.898328809339512091e+00
3.298471159979039946e+00 -5.932812516003939329e+00
3.378921676076090286e+00 -5.973273947060431688e+00
3.459372192173139737e+00 -5.930610922363813486e+00
3.539822708270189189e+00 -5.851302984057599410e+00
3.620273224367239528e+00 -5.795542596769796440e+00
3.700723740464288980e+00 -5.762872517572889208e+00
3.781174256561339320e+00 -5.754424543898194244e+00
3.861624772658388771e+00 -5.723567179292144758e+00
3.942075288755438223e+00 -5.711867620605127094e+00
4.022525804852488562e+00 -5.738832520761976141e+00
4.102976320949538014e+00 -5.837174654879842883e+00
4.183426837046588354e+00 -5.903418605347756198e+00
4.263877353143637805e+00 -5.952219869800133623e+00
4.344327869240687257e+00 -5.979107811947195650e+00
4.424778385337737596e+00 -5.955485005967021017e+00
4.505228901434787048e+00 -5.925027907608600763e+00
4.585679417531836499e+00 -5.984798675044724625e+00
4.666129933628886839e+00 -5.996759540052627457e+00
4.746580449725936290e+00 -5.948339820704486414e+00
4.827030965822985742e+00 -5.908223349478990194e+00
4.907481481920036082e+00 -5.901685607781844922e+00
4.987931998017085533e+00 -5.886667418647959060e+00
5.068382514114135873e+00 -5.910582405388226768e+00
5.148833030211185324e+00 -5.943446301860293879e+00
5.229283546308234776e+00 -5.956772493223935427e+00
5.309734062405285115e+00 -5.951054039849533517e+00
5.390184578502334567e+00 -5.922791204170366974e+00
5.470635094599384018e+00 -5.952209155325393297e+00
5.551085610696433470e+00 -5.924167304250281596e+00
5.631536126793483810e+00 -5.868352963360015551e+00
5.711986642890533261e+00 -5.848576079237826519e+00
5.792437158987582713e+00 -5.873337360895618531e+00
5.872887675084633052e+00 -5.968141866924866257e+00
5.953338191181682504e+00 -5.992540819404817753e+00
6.033788707278731955e+00 -5.987125602671163449e+00
6.114239223375781407e+00 -5.961489942649860652e+00
6.194689739472831747e+00 -5.946598448055329555e+00
6.275140255569881198e+00 -5.961334605550010934e+00
6.355590771666931538e+00 -6.048079201728366883e+00
6.436041287763980989e+00 -6.014107071009298089e+00
6.516491803861030441e+00 -5.969925143406925372e+00
6.596942319958079892e+00 -5.952715846911682540e+00
6.677392836055131120e+00 -5.930956999744787517e+00
6.757843352152180572e+00 -5.910414801306794530e+00
6.838293868249230023e+00 -5.985135806580857754e+00
6.918744384346279475e+00 -6.019632687343785982e+00
6.999194900443328926e+00 -6.016976419702596779e+00
7.079645416540378378e+00 -5.995075902657438505e+00
7.160095932637429605e+00 -5.981568444609078661e+00
7.240546448734479057e+00 -5.974517014123791547e+00
7.320996964831528508e+00 -5.947468972009967381e+00
7.401447480928577960e+00 -5.913709179489334389e+00
7.481897997025627411e+00 -5.903833297189246210e+00
7.562348513122678639e+00 -5.963002943768736408e+00
7.642799029219728091e+00 -6.017146661793576712e+00
7.723249545316777542e+00 -6.035195819885183610e+00
7.803700061413826994e+00 -6.045855995805332839e+00
7.884150577510876445e+00 -6.084718970713884012e+00
7.964601093607927673e+00 -6.120363526904603724e+00
8.045051609704977125e+00 -6.174750474798747391e+00
8.125502125802025688e+00 -6.224952481111126978e+00
8.205952641899076028e+00 -6.226629520720514677e+00
8.286403157996124591e+00 -6.220220804415903082e+00
8.366853674093176707e+00 -6.190104522740432991e+00
8.447304190190225270e+00 -6.135844791459455827e+00
8.527754706287275610e+00 -6.138564013363924765e+00
8.608205222384324173e+00 -6.170894779684013010e+00
8.688655738481374513e+00 -6.172287822774341848e+00
8.769106254578423076e+00 -6.195541967234673209e+00
8.849556770675475192e+00 -6.150617790325624945e+00
8.930007286772523756e+00 -6.080598853291774297e+00
9.010457802869574095e+00 -6.121518071415052553e+00
9.090908318966622659e+00 -6.119577541282122723e+00
9.171358835063672998e+00 -6.087519431258540337e+00
9.251809351160723338e+00 -6.071991734551866138e+00
9.332259867257773678e+00 -6.076873098285729746e+00
9.412710383354822241e+00 -6.020214562063285868e+00
9.493160899451872581e+00 -6.044844267763056500e+00
9.573611415548921144e+00 -6.162577147742264394e+00
9.654061931645971484e+00 -6.263990551320875788e+00
9.734512447743021823e+00 -6.300930815707216581e+00
9.814962963840072163e+00 -6.284863494182624244e+00
9.895413479937120727e+00 -6.291201855810927945e+00
9.975863996034171066e+00 -6.305630229824582322e+00
1.005631451213121963e+01 -6.350916434090467355e+00
1.013676502822827175e+01 -6.322172490822727475e+00
1.021721554432532031e+01 -6.265284065787549928e+00
1.029766606042237065e+01 -6.232893766182473705e+00
