0.000000000000000000e+00 -1.549019599857431873e-01
8.045051609704977069e-02 -1.916090199673061434e-01
1.609010321940995414e-01 -4.603668500374725192e-01
2.413515482911492982e-01 -1.014051618189594883e+00
3.218020643881990828e-01 -1.378984976239621130e+00
4.022525804852488118e-01 -1.854559847910995485e+00
4.827030965822985964e-01 -2.281474242920178863e+00
5.631536126793483810e-01 -2.451308586929504596e+00
6.436041287763981655e-01 -2.694759038734317880e+00
7.240546448734478391e-01 -2.906610126762661839e+00
8.045051609704976237e-01 -2.999290267178454705e+00
8.849556770675472972e-01 -3.079821366426998441e+00
9.654061931645971928e-01 -3.120439381767246889e+00
1.045856709261647088e+00 -3.174653622147488807e+00
1.126307225358696762e+00 -3.207062015735165250e+00
1.206757741455746435e+00 -3.207749843468963302e+00
1.287208257552796331e+00 -3.228007872994858030e+00
1.367658773649846005e+00 -3.292341414482796047e+00
1.448109289746895678e+00 -3.330193217638000025e+00
1.528559805843945352e+00 -3.322575310688863137e+00
1.609010321940995247e+00 -3.310674036691697353e+00
1.689460838038045143e+00 -3.273908955025271794e+00
1.769911354135094594e+00 -3.223741544864727526e+00
1.850361870232144490e+00 -3.116136340952177619e+00
1.930812386329194386e+00 -3.041699289636539127e+00
2.011262902426244281e+00 -3.015417916690009470e+00
2.091713418523294177e+00 -2.972314622966178543e+00
2.172163934620343628e+00 -2.932300327823567088e+00
2.252614450717393524e+00 -2.907169521195142714e+00
2.333064966814443419e+00 -2.907558588100604968e+00
2.413515482911492871e+00 -2.889035993014112069e+00
2.493965999008542767e+00 -2.890573945873219142e+00
2.574416515105592662e+00 -2.913277870447128493e+00
2.654867031202642558e+00 -2.910656558906365987e+00
2.735317547299692009e+00 -2.927956032097846606e+00
2.815768063396741905e+00 -3.000262066157140861e+00
2.896218579493791356e+00 -3.054978042062648225e+00
2.976669095590841252e+00 -3.059368382839559697e+00
3.057119611687890703e+00 -3.041136644560233471e+00
3.137570127784940599e+00 -3.036891426586843856e+00
3.218020643881990495e+00 -3.025959069478735941e+00
3.298471159979039946e+00 -2.985736038566213946e+00
3.378921676076090286e+00 -2.981600590419306140e+00
3.459372192173139737e+00 -2.973641448417564614e+00
3.539822708270189189e+00 -2.971212443719979390e+00
3.620273224367239528e+00 -2.941762288343540810e+00
3.700723740464288980e+00 -2.928961986421589891e+00
3.781174256561339320e+00 -2.952677046973400721e+00
3.861624772658388771e+00 -2.983692017292115750e+00
3.942075288755438223e+00 -3.002327501008677402e+00
4.022525804852488562e+00 -3.023271647134268214e+00
4.102976320949538014e+00 -3.020762285504502209e+00
4.183426837046588354e+00 -3.003103447169804152e+00
4.263877353143637805e+00 -2.983348391201690930e+00
4.344327869240687257e+00 -2.990295356400523019e+00
4.424778385337737596e+00 -3.010000839762877245e+00
4.505228901434787048e+00 -3.009156907758099742e+00
4.585679417531836499e+00 -2.997079714945908968e+00
4.666129933628886839e+00 -2.972855024363980192e+00
4.746580449725936290e+00 -2.964214644313308167e+00
4.827030965822985742e+00 -2.958257589121852771e+00
4.907481481920036082e+00 -2.963808195989180660e+00
4.987931998017085533e+00 -2.959329246365242749e+00
5.068382514114135873e+00 -2.956533885789376370e+00
5.148833030211185324e+00 -2.965010072093709592e+00
5.229283546308234776e+00 -2.974074483009221836e+00
5.309734062405285115e+00 -2.942951638531667413e+00
5.390184578502334567e+00 -2.951705823949329233e+00
5.470635094599384018e+00 -2.982377268102479828e+00
5.551085610696433470e+00 -2.993923610759332554e+00
5.631536126793483810e+00 -3.006696014185343380e+00
5.711986642890533261e+00 -3.008529967270029193e+00
5.792437158987582713e+00 -3.006212897538008022e+00
5.872887675084633052e+00 -3.012009214225584319e+00
5.953338191181682504e+00 -3.025883854593593103e+00
6.033788707278731955e+00 -3.047859842546490672e+00
6.114239223375781407e+00 -3.044397587908780789e+00
6.194689739472831747e+00 -3.034619107976180619e+00
6.275140255569881198e+00 -3.002286825870044584e+00
6.355590771666931538e+00 -2.961343301939086459e+00
6.436041287763980989e+00 -2.936678228813826230e+00
6.516491803861030441e+00 -2.940258882520036643e+00
6.596942319958079892e+00 -2.953733232083466387e+00
6.677392836055131120e+00 -2.993133609024105191e+00
6.757843352152180572e+00 -3.032157259267012517e+00
6.838293868249230023e+00 -3.028976429564032014e+00
6.918744384346279475e+00 -3.018670030316351394e+00
6.999194900443328926e+00 -3.023705927799154036e+00
7.079645416540378378e+00 -3.042379937683330482e+00
7.160095932637429605e+00 -3.040181464292567526e+00
7.240546448734479057e+00 -3.027920189211854129e+00
7.320996964831528508e+00 -3.014456262072791493e+00
7.401447480928577960e+00 -3.028691617763336730e+00
7.481897997025627411e+00 -3.071897695410412243e+00
7.562348513122678639e+00 -3.075448197674831352e+00
7.642799029219728091e+00 -3.043036001961716863e+00
7.723249545316777542e+00 -3.019987564886356335e+00
7.803700061413826994e+00 -3.008858561440056700e+00
7.884150577510876445e+00 -3.030376543607996798e+00
7.964601093607927673e+00 -3.062996479696987961e+00
8.045051609704977125e+00 -3.099049518845091278e+00
8.125502125802025688e+00 -3.111643128978267114e+00
8.205952641899076028e+00 -3.108049415022243966e+00
8.286403157996124591e+00 -3.108832088937394378e+00
8.366853674093176707e+00 -3.109672033088019649e+00
8.447304190190225270e+00 -3.089723114439163698e+00
8.527754706287275610e+00 -3.068289521530216390e+00
8.608205222384324173e+00 -3.074454979009753508e+00
8.688655738481374513e+00 -3.076910297022485086e+00
8.769106254578423076e+00 -3.094959708671527920e+00
8.849556770675475192e+00 -3.119111357115733618e+00
8.930007286772523756e+00 -3.119237814133772435e+00
9.010457802869574095e+00 -3.095620638374978917e+00
9.090908318966622659e+00 -3.089530928441615032e+00
9.171358835063672998e+00 -3.101814695842340264e+00
9.251809351160723338e+00 -3.128843034544154023e+00
9.332259867257773678e+00 -3.139210430022229215e+00
9.412710383354822241e+00 -3.143908082010675287e+00
9.493160899451872581e+00 -3.158892154616895098e+00
9.573611415548921144e+00 -3.147359085165474024e+00
9.654061931645971484e+00 -3.109514367224146980e+00
9.734512447743021823e+00 -3.108568343808300050e+00
9.814962963840072163e+00 -3.148703996178443987e+00
9.895413479937120727e+00 -3.194679272349703059e+00
9.975863996034171066e+00 -3.196161637760689622e+00
1.005631451213121963e+01 -3.175721690605180392e+00
1.013676502822827175e+01 -3.171496792058290826e+00
1.021721554432532031e+01 -3.183239429671686604e+00
1.029766606042237065e+01 -3.190547135399453449e+00
