0.000000000000000000e+00 -1.549019599857431873e-01
8.045051609704977069e-02 -1.888391483126931336e-01
1.609010321940995414e-01 -4.836694386677510282e-01
2.413515482911492982e-01 -1.063873921417998192e+00
3.218020643881990828e-01 -1.356578132439441697e+00
4.022525804852488118e-01 -1.593687805483145814e+00
4.827030965822985964e-01 -1.991463425266635445e+00
5.631536126793483810e-01 -2.489909819075114772e+00
6.436041287763981655e-01 -2.823643050099948759e+00
7.240546448734478391e-01 -3.140030454014827832e+00
8.045051609704976237e-01 -3.277364281550277259e+00
8.849556770675472972e-01 -3.329073561039709084e+00
9.654061931645971928e-01 -3.398132110888306912e+00
1.045856709261647088e+00 -3.440240212801366493e+00
1.126307225358696762e+00 -3.429060176364978840e+00
1.206757741455746435e+00 -3.355047244295472630e+00
1.287208257552796331e+00 -3.283377816591968923e+00
1.367658773649846005e+00 -3.288557795723403121e+00
1.448109289746895678e+00 -3.287712474368545745e+00
1.528559805843945352e+00 -3.253576003480489032e+00
1.609010321940995247e+00 -3.195554263800691075e+00
1.689460838038045143e+00 -3.116978800577482556e+00
1.769911354135094594e+00 -3.033784791460174546e+00
1.850361870232144490e+00 -2.965408315965780250e+00
1.930812386329194386e+00 -2.861746147548469121e+00
2.011262902426244281e+00 -2.783496903888244667e+00
2.091713418523294177e+00 -2.795400673471257758e+00
2.172163934620343628e+00 -2.860343302219417350e+00
2.252614450717393524e+00 -2.908488816426979540e+00
2.333064966814443419e+00 -2.934702079049529289e+00
2.413515482911492871e+00 -2.961909678033268545e+00
2.493965999008542767e+00 -2.937648473568190255e+00
2.574416515105592662e+00 -2.931833698525398990e+00
2.654867031202642558e+00 -2.952048471756554715e+00
2.735317547299692009e+00 -2.958712058413302870e+00
2.815768063396741905e+00 -2.936564940237177179e+00
2.896218579493791356e+00 -2.944157934475265748e+00
2.976669095590841252e+00 -3.023152779623137221e+00
3.057119611687890703e+00 -3.106794242786700799e+00
3.137570127784940599e+00 -3.117446058152337329e+00
3.218020643881990495e+00 -3.053638894070354048e+00
3.298471159979039946e+00 -3.011660396731994815e+00
3.378921676076090286e+00 -2.969112248304561774e+00
3.459372192173139737e+00 -2.937371098648116075e+00
3.539822708270189189e+00 -2.929343660094540613e+00
3.620273224367239528e+00 -2.940503772286602757e+00
3.700723740464288980e+00 -2.943059903388594911e+00
3.781174256561339320e+00 -2.937418116679562985e+00
3.861624772658388771e+00 -2.911229744431871325e+00
3.942075288755438223e+00 -2.907510308577675673e+00
4.022525804852488562e+00 -2.906268862163931654e+00
4.102976320949538014e+00 -2.927005239868718967e+00
4.183426837046588354e+00 -2.968592157090038874e+00
4.263877353143637805e+00 -3.020066429136644803e+00
4.344327869240687257e+00 -3.028824749298666408e+00
4.424778385337737596e+00 -2.999414137575889150e+00
4.505228901434787048e+00 -2.967691059756086602e+00
4.585679417531836499e+00 -2.954816637837191173e+00
4.666129933628886839e+00 -2.921450718033848482e+00
4.746580449725936290e+00 -2.894289589020981879e+00
4.827030965822985742e+00 -2.893897712823797708e+00
4.907481481920036082e+00 -2.919480009643330209e+00
4.987931998017085533e+00 -2.940204954976020968e+00
5.068382514114135873e+00 -2.945953762516467567e+00
5.148833030211185324e+00 -2.962695012745224066e+00
5.229283546308234776e+00 -2.981941206807457334e+00
5.309734062405285115e+00 -3.002191290813522873e+00
5.390184578502334567e+00 -2.973635236290140149e+00
5.470635094599384018e+00 -2.927417945900820495e+00
5.551085610696433470e+00 -2.933990235019631854e+00
5.631536126793483810e+00 -2.988887523454905715e+00
5.711986642890533261e+00 -3.024159829778885200e+00
5.792437158987582713e+00 -3.016385943740855335e+00
5.872887675084633052e+00 -2.982074754873667466e+00
5.953338191181682504e+00 -2.982837152313124296e+00
6.033788707278731955e+00 -3.007591200117087915e+00
6.114239223375781407e+00 -3.005637092885438566e+00
6.194689739472831747e+00 -2.995675381440181528e+00
6.275140255569881198e+00 -2.980808486436616445e+00
6.355590771666931538e+00 -2.974250377879791074e+00
6.436041287763980989e+00 -2.973155455545935855e+00
6.516491803861030441e+00 -2.981278902592585656e+00
6.596942319958079892e+00 -2.992488779686267808e+00
6.677392836055131120e+00 -3.007359849131075347e+00
6.757843352152180572e+00 -3.003074086236655393e+00
6.838293868249230023e+00 -2.988694353120473490e+00
6.918744384346279475e+00 -2.985803304973979166e+00
6.999194900443328926e+00 -3.013436771377117296e+00
7.079645416540378378e+00 -3.031136894094386136e+00
7.160095932637429605e+00 -3.032018284073842107e+00
7.240546448734479057e+00 -3.018866158557795831e+00
7.320996964831528508e+00 -3.025914245998008401e+00
7.401447480928577960e+00 -3.001831635862961978e+00
7.481897997025627411e+00 -2.975988480829040217e+00
7.562348513122678639e+00 -2.954988862196648913e+00
7.642799029219728091e+00 -2.939807959135510185e+00
7.723249545316777542e+00 -2.949863580007921371e+00
7.803700061413826994e+00 -2.985867592131757675e+00
7.884150577510876445e+00 -3.024778565083870774e+00
7.964601093607927673e+00 -3.026820679162188998e+00
8.045051609704977125e+00 -3.006369460463192311e+00
8.125502125802025688e+00 -3.005675411542556130e+00
8.205952641899076028e+00 -3.021949695817212511e+00
8.286403157996124591e+00 -3.030309719228625021e+00
8.366853674093176707e+00 -3.013764200700748574e+00
8.447304190190225270e+00 -3.005725228938105342e+00
8.527754706287275610e+00 -3.003644966841495734e+00
8.608205222384324173e+00 -3.020937372327336501e+00
8.688655738481374513e+00 -3.032183618537183989e+00
8.769106254578423076e+00 -3.048668570812100853e+00
8.849556770675475192e+00 -3.062009362642692523e+00
8.930007286772523756e+00 -3.056406760768690223e+00
9.010457802869574095e+00 -3.048566047021385117e+00
9.090908318966622659e+00 -3.065138049654636987e+00
9.171358835063672998e+00 -3.095086424355288468e+00
9.251809351160723338e+00 -3.096539083290303918e+00
9.332259867257773678e+00 -3.078031410300726467e+00
9.412710383354822241e+00 -3.074387663434070550e+00
9.493160899451872581e+00 -3.074694356475148993e+00
9.573611415548921144e+00 -3.078080421279430823e+00
9.654061931645971484e+00 -3.088550048557331618e+00
9.734512447743021823e+00 -3.119078876122354238e+00
9.814962963840072163e+00 -3.119935911318135080e+00
9.895413479937120727e+00 -3.090894926519518027e+00
9.975863996034171066e+00 -3.079050819977545039e+00
1.005631451213121963e+01 -3.091880297451339743e+00
1.013676502822827175e+01 -3.110900054632327549e+00
1.021721554432532031e+01 -3.121895507747213028e+00
1.029766606042237065e+01 -3.109274313081063390e+00
