0.000000000000000000e+00 -1.549019599857431873e-01
8.045051609704977069e-02 -1.921186868386217939e-01
1.609010321940995414e-01 -4.920971826995880205e-01
2.413515482911492982e-01 -9.889173039803274001e-01
3.218020643881990828e-01 -1.349931400330406817e+00
4.022525804852488118e-01 -1.985876581350038084e+00
4.827030965822985964e-01 -2.548910330332305740e+00
5.631536126793483810e-01 -2.885993654530124797e+00
6.436041287763981655e-01 -2.995645582608213342e+00
7.240546448734478391e-01 -2.972788874258389225e+00
8.045051609704976237e-01 -3.033638470067715698e+00
8.849556770675472972e-01 -3.192762065125938964e+00
9.654061931645971928e-01 -3.293376060189179277e+00
1.045856709261647088e+00 -3.323236969958069054e+00
1.126307225358696762e+00 -3.348850874750584072e+00
1.206757741455746435e+00 -3.350527882339018326e+00
1.287208257552796331e+00 -3.423349406382075966e+00
1.367658773649846005e+00 -3.504490132754898735e+00
1.448109289746895678e+00 -3.447608454470997064e+00
1.528559805843945352e+00 -3.384191910409054316e+00
1.609010321940995247e+00 -3.336189448338704011e+00
1.689460838038045143e+00 -3.306221469482097941e+00
1.769911354135094594e+00 -3.270566234312664911e+00
1.850361870232144490e+00 -3.206853736767997010e+00
1.930812386329194386e+00 -3.063882153575881784e+00
2.011262902426244281e+00 -2.954344097118676959e+00
2.091713418523294177e+00 -2.966630868549659183e+00
2.172163934620343628e+00 -2.996214863225085789e+00
2.252614450717393524e+00 -2.982902145554679585e+00
2.333064966814443419e+00 -2.967283601868668352e+00
2.413515482911492871e+00 -2.964269481074965018e+00
2.493965999008542767e+00 -2.940446728013716093e+00
2.574416515105592662e+00 -2.928674365330511176e+00
2.654867031202642558e+00 -2.947423916243088637e+00
2.735317547299692009e+00 -2.971252807194822321e+00
2.815768063396741905e+00 -2.998098995295805480e+00
2.896218579493791356e+00 -2.982959721428398048e+00
2.976669095590841252e+00 -2.939544029549332027e+00
3.057119611687890703e+00 -2.904521607705072839e+00
3.137570127784940599e+00 -2.911706785443070711e+00
3.218020643881990495e+00 -2.921440580460425984e+00
3.298471159979039946e+00 -2.915081427201378084e+00
3.378921676076090286e+00 -2.871209661413869352e+00
3.459372192173139737e+00 -2.868522471773019777e+00
3.539822708270189189e+00 -2.894953002112132356e+00
3.620273224367239528e+00 -2.935391835238718272e+00
3.700723740464288980e+00 -2.949095612932121302e+00
3.781174256561339320e+00 -2.931871930654882163e+00
3.861624772658388771e+00 -2.922551734299405624e+00
3.942075288755438223e+00 -2.929066680683789059e+00
4.022525804852488562e+00 -2.960431081290325395e+00
4.102976320949538014e+00 -2.993146774304074942e+00
4.183426837046588354e+00 -3.005129458363938966e+00
4.263877353143637805e+00 -2.966761105051922698e+00
4.344327869240687257e+00 -2.925632578221944335e+00
4.424778385337737596e+00 -2.901850653632686683e+00
4.505228901434787048e+00 -2.897233526383455882e+00
4.585679417531836499e+00 -2.925280894983299351e+00
4.666129933628886839e+00 -2.934581988331234736e+00
4.746580449725936290e+00 -2.920785686319822272e+00
4.827030965822985742e+00 -2.931685949113090217e+00
4.907481481920036082e+00 -2.993027777661594779e+00
4.987931998017085533e+00 -3.025514000439449624e+00
5.068382514114135873e+00 -3.004847929137609785e+00
5.148833030211185324e+00 -2.996836659940735448e+00
5.229283546308234776e+00 -3.012235879967555707e+00
5.309734062405285115e+00 -3.030451848259394954e+00
5.390184578502334567e+00 -3.034058036504208911e+00
5.470635094599384018e+00 -3.021020721245554430e+00
5.551085610696433470e+00 -3.002666282017757649e+00
5.631536126793483810e+00 -2.994070838525776601e+00
5.711986642890533261e+00 -3.018010302099978226e+00
5.792437158987582713e+00 -3.043574378413700821e+00
5.872887675084633052e+00 -3.028719059462940066e+00
5.953338191181682504e+00 -2.995315953213475435e+00
6.033788707278731955e+00 -2.986614624628807224e+00
6.114239223375781407e+00 -2.998282827989111166e+00
6.194689739472831747e+00 -3.028172275239681355e+00
6.275140255569881198e+00 -3.034727147617818144e+00
6.355590771666931538e+00 -3.024521568574654040e+00
6.436041287763980989e+00 -3.009875036155124750e+00
6.516491803861030441e+00 -2.999834557466792617e+00
6.596942319958079892e+00 -2.980848930174410327e+00
6.677392836055131120e+00 -2.971857050127840516e+00
6.757843352152180572e+00 -2.985024384418036192e+00
6.838293868249230023e+00 -2.990233929677178271e+00
6.918744384346279475e+00 -3.014257014354240649e+00
6.999194900443328926e+00 -3.041001077687680798e+00
7.079645416540378378e+00 -3.040213181901191053e+00
7.160095932637429605e+00 -3.026150956041282480e+00
7.240546448734479057e+00 -3.007941326490024991e+00
7.320996964831528508e+00 -2.984737484145200792e+00
7.401447480928577960e+00 -3.012447420915172813e+00
7.481897997025627411e+00 -3.066511515197499982e+00
7.562348513122678639e+00 -3.111128033840910856e+00
7.642799029219728091e+00 -3.119115706598134530e+00
7.723249545316777542e+00 -3.108848615654915548e+00
7.803700061413826994e+00 -3.073929103752609748e+00
7.884150577510876445e+00 -3.052906399598922071e+00
7.964601093607927673e+00 -3.071062987279143286e+00
8.045051609704977125e+00 -3.103391733934947272e+00
8.125502125802025688e+00 -3.102119775300973714e+00
8.205952641899076028e+00 -3.074656636264015308e+00
8.286403157996124591e+00 -3.039350279917725661e+00
8.366853674093176707e+00 -3.043522358716173493e+00
8.447304190190225270e+00 -3.072867940464640846e+00
8.527754706287275610e+00 -3.105907721064995464e+00
8.608205222384324173e+00 -3.136890762467765992e+00
8.688655738481374513e+00 -3.122073372117277756e+00
8.769106254578423076e+00 -3.084245906106544144e+00
8.849556770675475192e+00 -3.069170466720731572e+00
8.930007286772523756e+00 -3.065021446716813536e+00
9.010457802869574095e+00 -3.076716063371073950e+00
9.090908318966622659e+00 -3.079135238649893136e+00
9.171358835063672998e+00 -3.071823380011515781e+00
9.251809351160723338e+00 -3.092849630202597400e+00
9.332259867257773678e+00 -3.124094514129458044e+00
9.412710383354822241e+00 -3.142957819592550717e+00
9.493160899451872581e+00 -3.119526146688402779e+00
9.573611415548921144e+00 -3.098429638880414672e+00
9.654061931645971484e+00 -3.094454387379468763e+00
9.734512447743021823e+00 -3.109145503099570274e+00
9.814962963840072163e+00 -3.122203308570009384e+00
9.895413479937120727e+00 -3.137647819163502216e+00
9.975863996034171066e+00 -3.157396500534185968e+00
1.005631451213121963e+01 -3.166478395393031331e+00
1.013676502822827175e+01 -3.181163214290116503e+00
1.021721554432532031e+01 -3.199644924101242349e+00
1.029766606042237065e+01 -3.208153271828583009e+00
