0.000000000000000000e+00 -1.549019599857431873e-01
8.045051609704977069e-02 -1.903042437609058224e-01
1.609010321940995414e-01 -4.360904338403893132e-01
2.413515482911492982e-01 -9.501942013886163219e-01
3.218020643881990828e-01 -1.339547750221937505e+00
4.022525804852488118e-01 -1.781954495265269944e+00
4.827030965822985964e-01 -2.177639702465422822e+00
5.631536126793483810e-01 -2.533956119082066305e+00
6.436041287763981655e-01 -2.884998042920672301e+00
7.240546448734478391e-01 -3.114736955210335889e+00
8.045051609704976237e-01 -3.264492011359904300e+00
8.849556770675472972e-01 -3.369331488255784102e+00
9.654061931645971928e-01 -3.438662925855475727e+00
1.045856709261647088e+00 -3.444831238342372703e+00
1.126307225358696762e+00 -3.407549330142545241e+00
1.206757741455746435e+00 -3.400562718854750255e+00
1.287208257552796331e+00 -3.406460875480436190e+00
1.367658773649846005e+00 -3.428074670171401106e+00
1.448109289746895678e+00 -3.495536560244923763e+00
1.528559805843945352e+00 -3.491244343692311958e+00
1.609010321940995247e+00 -3.343996754111131509e+00
1.689460838038045143e+00 -3.186973200149354035e+00
1.769911354135094594e+00 -3.092561230119557081e+00
1.850361870232144490e+00 -3.066391996277818777e+00
1.930812386329194386e+00 -3.008039609121519131e+00
2.011262902426244281e+00 -2.930991136776822437e+00
2.091713418523294177e+00 -2.890853324083552334e+00
2.172163934620343628e+00 -2.903749567795386177e+00
2.252614450717393524e+00 -2.913505299595900766e+00
2.333064966814443419e+00 -2.900833817550407812e+00
2.413515482911492871e+00 -2.917904371039120814e+00
2.493965999008542767e+00 -2.936240180212080109e+00
2.574416515105592662e+00 -2.915508490711535838e+00
2.654867031202642558e+00 -2.887214640775487950e+00
2.735317547299692009e+00 -2.877776941555881596e+00
2.815768063396741905e+00 -2.843216049642146359e+00
2.896218579493791356e+00 -2.829206662675917361e+00
2.976669095590841252e+00 -2.870235500749409141e+00
3.057119611687890703e+00 -2.948903683373839790e+00
3.137570127784940599e+00 -2.986714541465975259e+00
3.218020643881990495e+00 -2.970258172878891045e+00
3.298471159979039946e+00 -2.933048553612702669e+00
3.378921676076090286e+00 -2.919524002088991210e+00
3.459372192173139737e+00 -2.951884016633204766e+00
3.539822708270189189e+00 -2.974653541428951886e+00
3.620273224367239528e+00 -2.934212227541485696e+00
3.700723740464288980e+00 -2.885168335773063752e+00
3.781174256561339320e+00 -2.873315560288083770e+00
3.861624772658388771e+00 -2.911408134225982991e+00
3.942075288755438223e+00 -2.963508226990609895e+00
4.022525804852488562e+00 -2.997878919584614721e+00
4.102976320949538014e+00 -3.021770011981982584e+00
4.183426837046588354e+00 -3.021948731341520755e+00
4.263877353143637805e+00 -2.985331377483905424e+00
4.344327869240687257e+00 -2.946052657399794938e+00
4.424778385337737596e+00 -2.930873257310107061e+00
4.505228901434787048e+00 -2.951752912773289328e+00
4.585679417531836499e+00 -2.971465401359913105e+00
4.666129933628886839e+00 -2.974711044161761908e+00
4.746580449725936290e+00 -2.966962814958701955e+00
4.827030965822985742e+00 -2.966205782310975980e+00
4.907481481920036082e+00 -2.949273553890781052e+00
4.987931998017085533e+00 -2.974602902318644659e+00
5.068382514114135873e+00 -3.018691854907844530e+00
5.148833030211185324e+00 -3.030936888486686076e+00
5.229283546308234776e+00 -3.001208348532790726e+00
5.309734062405285115e+00 -2.985066591092329968e+00
5.390184578502334567e+00 -2.988559824974254653e+00
5.470635094599384018e+00 -3.002645225815604668e+00
5.551085610696433470e+00 -3.014328802947888519e+00
5.631536126793483810e+00 -3.018411171062967302e+00
5.711986642890533261e+00 -3.007773921022047325e+00
5.792437158987582713e+00 -2.965547954699495392e+00
5.872887675084633052e+00 -2.963057339120260814e+00
5.953338191181682504e+00 -2.984986393595054022e+00
6.033788707278731955e+00 -3.020200377007091763e+00
6.114239223375781407e+00 -3.022195425475230124e+00
6.194689739472831747e+00 -3.015932444469019202e+00
6.275140255569881198e+00 -3.036705552779413342e+00
6.355590771666931538e+00 -3.068582851546687085e+00
6.436041287763980989e+00 -3.103271168463568319e+00
6.516491803861030441e+00 -3.085940314672716234e+00
6.596942319958079892e+00 -3.062716593183528957e+00
6.677392836055131120e+00 -3.058458592316910973e+00
6.757843352152180572e+00 -3.064022593945861406e+00
6.838293868249230023e+00 -3.034398371020079033e+00
6.918744384346279475e+00 -2.991308720916682429e+00
6.999194900443328926e+00 -2.955231303518509822e+00
7.079645416540378378e+00 -2.961154946336792992e+00
7.160095932637429605e+00 -2.997449908930256424e+00
7.240546448734479057e+00 -2.994072673059967382e+00
7.320996964831528508e+00 -2.972584771270409654e+00
7.401447480928577960e+00 -2.982661895790866602e+00
7.481897997025627411e+00 -3.010331455501090492e+00
7.562348513122678639e+00 -3.023426766306766211e+00
7.642799029219728091e+00 -3.042713790232886684e+00
7.723249545316777542e+00 -3.044582024781401497e+00
7.803700061413826994e+00 -3.029524034683714007e+00
7.884150577510876445e+00 -3.012327245919760976e+00
7.964601093607927673e+00 -3.018010790326348669e+00
8.045051609704977125e+00 -3.038535916787586721e+00
8.125502125802025688e+00 -3.065357336786852738e+00
8.205952641899076028e+00 -3.099680609233847584e+00
8.286403157996124591e+00 -3.092951888286205264e+00
8.366853674093176707e+00 -3.061670968781191160e+00
8.447304190190225270e+00 -3.041246368321961491e+00
8.527754706287275610e+00 -3.061480345029871319e+00
8.608205222384324173e+00 -3.082981933132871166e+00
8.688655738481374513e+00 -3.089461496842828225e+00
8.769106254578423076e+00 -3.090387571242395381e+00
8.849556770675475192e+00 -3.105449652226695445e+00
8.930007286772523756e+00 -3.110050806165304493e+00
9.010457802869574095e+00 -3.127005153814926608e+00
9.090908318966622659e+00 -3.138286955184936833e+00
9.171358835063672998e+00 -3.123010151334798312e+00
9.251809351160723338e+00 -3.088179675573714533e+00
9.332259867257773678e+00 -3.080252823921889593e+00
9.412710383354822241e+00 -3.063142550302827338e+00
9.493160899451872581e+00 -3.048762824048169229e+00
9.573611415548921144e+00 -3.051072180186391591e+00
9.654061931645971484e+00 -3.070458771473287829e+00
9.734512447743021823e+00 -3.080214858341610462e+00
9.814962963840072163e+00 -3.092004905527023784e+00
9.895413479937120727e+00 -3.105426843597028252e+00
9.975863996034171066e+00 -3.116898754161794738e+00
1.005631451213121963e+01 -3.103798261408558634e+00
1.013676502822827175e+01 -3.099182445104667227e+00
1.021721554432532031e+01 -3.111811647058859709e+00
1.029766606042237065e+01 -3.124046998371164285e+00
