0.000000000000000000e+00 -1.549019599857431873e-01
8.045051609704977069e-02 -1.915893024660231259e-01
1.609010321940995414e-01 -4.778839305775874347e-01
2.413515482911492982e-01 -1.083991193554119548e+00
3.218020643881990828e-01 -1.514368078200809764e+00
4.022525804852488118e-01 -1.847353701552794991e+00
4.827030965822985964e-01 -2.171980499692436339e+00
5.631536126793483810e-01 -2.638357262301691986e+00
6.436041287763981655e-01 -3.071009796309164930e+00
7.240546448734478391e-01 -3.202738371643088833e+00
8.045051609704976237e-01 -3.278061016424999252e+00
8.849556770675472972e-01 -3.376655494577973649e+00
9.654061931645971928e-01 -3.439458508162577033e+00
1.045856709261647088e+00 -3.423305045076689535e+00
1.126307225358696762e+00 -3.391162793626264715e+00
1.206757741455746435e+00 -3.412698084185051162e+00
1.287208257552796331e+00 -3.451082685292874874e+00
1.367658773649846005e+00 -3.394855859811951593e+00
1.448109289746895678e+00 -3.329125192861453808e+00
1.528559805843945352e+00 -3.255308531485127777e+00
1.609010321940995247e+00 -3.138141951443891742e+00
1.689460838038045143e+00 -3.046553482113264266e+00
1.769911354135094594e+00 -3.034825434041680481e+00
1.850361870232144490e+00 -3.074684981210677570e+00
1.930812386329194386e+00 -3.035556691727932854e+00
2.011262902426244281e+00 -2.930510157889928635e+00
2.091713418523294177e+00 -2.829523716218134144e+00
2.172163934620343628e+00 -2.791215562923674565e+00
2.252614450717393524e+00 -2.800202710437468934e+00
2.333064966814443419e+00 -2.817957938437716692e+00
2.413515482911492871e+00 -2.875215369858684422e+00
2.493965999008542767e+00 -2.956314657016339886e+00
2.574416515105592662e+00 -2.990707501682810854e+00
2.654867031202642558e+00 -3.002926142965358203e+00
2.735317547299692009e+00 -3.035122264085666544e+00
2.815768063396741905e+00 -3.018548743405605528e+00
2.896218579493791356e+00 -2.985012458081458320e+00
2.976669095590841252e+00 -2.969717143140364612e+00
3.057119611687890703e+00 -3.005739518953606026e+00
3.137570127784940599e+00 -3.037102456468938172e+00
3.218020643881990495e+00 -2.995191168408760429e+00
3.298471159979039946e+00 -2.951478494627207905e+00
3.378921676076090286e+00 -2.914551807631557967e+00
3.459372192173139737e+00 -2.924454404196973112e+00
3.539822708270189189e+00 -2.958923388427854739e+00
3.620273224367239528e+00 -2.958218475963842575e+00
3.700723740464288980e+00 -2.961577984726279311e+00
3.781174256561339320e+00 -2.975959913014010638e+00
3.861624772658388771e+00 -2.963059705862613580e+00
3.942075288755438223e+00 -2.932546716545449961e+00
4.022525804852488562e+00 -2.917755014712802630e+00
4.102976320949538014e+00 -2.923164189289171322e+00
4.183426837046588354e+00 -2.932429896038837747e+00
4.263877353143637805e+00 -2.958700607490268197e+00
4.344327869240687257e+00 -2.996920198996710472e+00
4.424778385337737596e+00 -3.009015094519454703e+00
4.505228901434787048e+00 -2.980232370987411894e+00
4.585679417531836499e+00 -2.924271374250491107e+00
4.666129933628886839e+00 -2.892962941595818016e+00
4.746580449725936290e+00 -2.902580583326520802e+00
4.827030965822985742e+00 -2.957249884774455051e+00
4.907481481920036082e+00 -2.998526900839136644e+00
4.987931998017085533e+00 -3.037542001316809070e+00
5.068382514114135873e+00 -3.065508816731166153e+00
5.148833030211185324e+00 -3.076094958260690237e+00
5.229283546308234776e+00 -3.046258059118626793e+00
5.309734062405285115e+00 -3.014157086722904832e+00
5.390184578502334567e+00 -3.003951058748148828e+00
5.470635094599384018e+00 -3.013645713573940288e+00
5.551085610696433470e+00 -3.040533591762120125e+00
5.631536126793483810e+00 -3.047722023823061566e+00
5.711986642890533261e+00 -3.005330056731058352e+00
5.792437158987582713e+00 -2.974512722639965023e+00
5.872887675084633052e+00 -2.943736084011812526e+00
5.953338191181682504e+00 -2.923171323018387113e+00
6.033788707278731955e+00 -2.910833774491497383e+00
6.114239223375781407e+00 -2.925243431750406575e+00
6.194689739472831747e+00 -2.962123596356514899e+00
6.275140255569881198e+00 -3.001212405440742081e+00
6.355590771666931538e+00 -3.000322866435263247e+00
6.436041287763980989e+00 -2.949639597530096413e+00
6.516491803861030441e+00 -2.911918586135710196e+00
6.596942319958079892e+00 -2.924727885438087149e+00
6.677392836055131120e+00 -2.952453028333626772e+00
6.757843352152180572e+00 -2.987814052126053443e+00
6.838293868249230023e+00 -3.006640307248555466e+00
6.918744384346279475e+00 -3.006794834644816561e+00
6.999194900443328926e+00 -3.003658539450249965e+00
7.079645416540378378e+00 -3.003840590616471129e+00
7.160095932637429605e+00 -2.983317644896278154e+00
7.240546448734479057e+00 -2.970161346256416479e+00
7.320996964831528508e+00 -2.993216630863123839e+00
7.401447480928577960e+00 -3.011003852788795676e+00
7.481897997025627411e+00 -3.017409463579119766e+00
7.562348513122678639e+00 -3.041634579369904223e+00
7.642799029219728091e+00 -3.052804211771334764e+00
7.723249545316777542e+00 -3.074509894582875269e+00
7.803700061413826994e+00 -3.068457521078184147e+00
7.884150577510876445e+00 -3.024972845654271492e+00
7.964601093607927673e+00 -2.984539846306279554e+00
8.045051609704977125e+00 -2.976978805754445290e+00
8.125502125802025688e+00 -2.979541749352117463e+00
8.205952641899076028e+00 -2.974412917361977993e+00
8.286403157996124591e+00 -2.979769768966307630e+00
8.366853674093176707e+00 -3.014364137320474146e+00
8.447304190190225270e+00 -3.062415600248879599e+00
8.527754706287275610e+00 -3.107311815585826587e+00
8.608205222384324173e+00 -3.133110567454967743e+00
8.688655738481374513e+00 -3.132348673063551470e+00
8.769106254578423076e+00 -3.126632657583849006e+00
8.849556770675475192e+00 -3.103775398522474305e+00
8.930007286772523756e+00 -3.073964653293314697e+00
9.010457802869574095e+00 -3.062182246830591481e+00
9.090908318966622659e+00 -3.064540071456104631e+00
9.171358835063672998e+00 -3.063622077493169726e+00
9.251809351160723338e+00 -3.044277250567005044e+00
9.332259867257773678e+00 -3.040740898043482243e+00
9.412710383354822241e+00 -3.051078089698018303e+00
9.493160899451872581e+00 -3.028601927537198701e+00
9.573611415548921144e+00 -3.007901738523829138e+00
9.654061931645971484e+00 -3.023292621825374393e+00
9.734512447743021823e+00 -3.035605219158232337e+00
9.814962963840072163e+00 -3.038165119853334595e+00
9.895413479937120727e+00 -3.041175784217239553e+00
9.975863996034171066e+00 -3.064052387422717683e+00
1.005631451213121963e+01 -3.095754557295907983e+00
1.013676502822827175e+01 -3.101658767024675800e+00
1.021721554432532031e+01 -3.096530519014525140e+00
1.029766606042237065e+01 -3.098834267528236097e+00
