0.000000000000000000e+00 -1.549019599857431873e-01
8.045051609704977069e-02 -1.697545970626447298e-01
1.609010321940995414e-01 -3.206467212436988623e-01
2.413515482911492982e-01 -5.309140255002382514e-01
3.218020643881990828e-01 -7.703847447502282231e-01
4.022525804852488118e-01 -1.154069168320579486e+00
4.827030965822985964e-01 -1.606132904981386167e+00
5.631536126793483810e-01 -2.011862559695173136e+00
6.436041287763981655e-01 -2.489197844648630920e+00
7.240546448734478391e-01 -2.813806074706264315e+00
8.045051609704976237e-01 -2.914564845975494478e+00
8.849556770675472972e-01 -2.994500534024181260e+00
9.654061931645971928e-01 -3.040920396438616002e+00
1.045856709261647088e+00 -3.103423338988374969e+00
1.126307225358696762e+00 -3.203360822179870837e+00
1.206757741455746435e+00 -3.309638481756666195e+00
1.287208257552796331e+00 -3.344769525763095164e+00
1.367658773649846005e+00 -3.280510560765212524e+00
1.448109289746895678e+00 -3.196074245868152364e+00
1.528559805843945352e+00 -3.147688397974086172e+00
1.609010321940995247e+00 -3.175521072540597345e+00
1.689460838038045143e+00 -3.186536779495065197e+00
1.769911354135094594e+00 -3.180920605560725978e+00
1.850361870232144490e+00 -3.121638024647816589e+00
1.930812386329194386e+00 -3.023633111418063901e+00
2.011262902426244281e+00 -2.911041367956461290e+00
2.091713418523294177e+00 -2.825571317290464179e+00
2.172163934620343628e+00 -2.812238544514446215e+00
2.252614450717393524e+00 -2.833897702825441733e+00
2.333064966814443419e+00 -2.834497855920014242e+00
2.413515482911492871e+00 -2.823753518533834939e+00
2.493965999008542767e+00 -2.851629061235954499e+00
2.574416515105592662e+00 -2.894954467838529499e+00
2.654867031202642558e+00 -2.937120802912693396e+00
2.735317547299692009e+00 -2.973494311737996387e+00
2.815768063396741905e+00 -3.008929204381132205e+00
2.896218579493791356e+00 -3.056513936462562420e+00
2.976669095590841252e+00 -3.090888720195231087e+00
3.057119611687890703e+00 -3.103839767628949531e+00
3.137570127784940599e+00 -3.104262828963047394e+00
3.218020643881990495e+00 -3.091743343646764064e+00
3.298471159979039946e+00 -3.123650411264451421e+00
3.378921676076090286e+00 -3.123410467105022903e+00
3.459372192173139737e+00 -3.106625809761351942e+00
3.539822708270189189e+00 -3.071347248018461595e+00
3.620273224367239528e+00 -3.033907118251378598e+00
3.700723740464288980e+00 -3.014074606121617705e+00
3.781174256561339320e+00 -2.994640999876059251e+00
3.861624772658388771e+00 -2.975318719338578166e+00
3.942075288755438223e+00 -2.986805083852161147e+00
4.022525804852488562e+00 -3.010088394205707285e+00
4.102976320949538014e+00 -3.043342234668533042e+00
4.183426837046588354e+00 -3.036077850488481111e+00
4.263877353143637805e+00 -2.987919732752160495e+00
4.344327869240687257e+00 -2.939087663342562440e+00
4.424778385337737596e+00 -2.914261327981741978e+00
4.505228901434787048e+00 -2.903415438565675188e+00
4.585679417531836499e+00 -2.934932184023894663e+00
4.666129933628886839e+00 -2.969037118159764344e+00
4.746580449725936290e+00 -3.000498750473976184e+00
4.827030965822985742e+00 -3.022860049033759378e+00
4.907481481920036082e+00 -3.050708999470272520e+00
4.987931998017085533e+00 -3.056454560898323791e+00
5.068382514114135873e+00 -3.060449031726565572e+00
5.148833030211185324e+00 -3.048575221785339462e+00
5.229283546308234776e+00 -3.000235481793145809e+00
5.309734062405285115e+00 -2.967051953735736269e+00
5.390184578502334567e+00 -2.941396712632807553e+00
5.470635094599384018e+00 -2.919176725392191862e+00
5.551085610696433470e+00 -2.913515455091391981e+00
5.631536126793483810e+00 -2.897800083368721857e+00
5.711986642890533261e+00 -2.884341901764626126e+00
5.792437158987582713e+00 -2.901853410899399410e+00
5.872887675084633052e+00 -2.929336555161218492e+00
5.953338191181682504e+00 -2.960659110729546128e+00
6.033788707278731955e+00 -2.978823700213734771e+00
6.114239223375781407e+00 -2.973198238141085081e+00
6.194689739472831747e+00 -2.965156857398805634e+00
6.275140255569881198e+00 -2.976412529953287311e+00
6.355590771666931538e+00 -2.985629584675985715e+00
6.436041287763980989e+00 -2.990203958359593628e+00
6.516491803861030441e+00 -3.009737841602246888e+00
6.596942319958079892e+00 -3.012160050723724503e+00
6.677392836055131120e+00 -3.002887227869137199e+00
6.757843352152180572e+00 -3.010999916325642900e+00
6.838293868249230023e+00 -3.028722969603618420e+00
6.918744384346279475e+00 -3.023768680282839405e+00
6.999194900443328926e+00 -2.992081744526987386e+00
7.079645416540378378e+00 -2.968319644234912236e+00
7.160095932637429605e+00 -2.965236619229442372e+00
7.240546448734479057e+00 -2.969506369948687663e+00
7.320996964831528508e+00 -2.967794182790320257e+00
7.401447480928577960e+00 -2.973393728572499395e+00
7.481897997025627411e+00 -2.996923382821194970e+00
7.562348513122678639e+00 -3.044426047939706503e+00
7.642799029219728091e+00 -3.083594092290717459e+00
7.723249545316777542e+00 -3.120934101977658859e+00
7.803700061413826994e+00 -3.126567211344057462e+00
7.884150577510876445e+00 -3.121680597665867474e+00
7.964601093607927673e+00 -3.103326072129925617e+00
8.045051609704977125e+00 -3.086367552986127638e+00
8.125502125802025688e+00 -3.083998014950437128e+00
8.205952641899076028e+00 -3.078760904045304780e+00
8.286403157996124591e+00 -3.079269452042477706e+00
8.366853674093176707e+00 -3.100980629507943398e+00
8.447304190190225270e+00 -3.129113648848225626e+00
8.527754706287275610e+00 -3.137366603191743319e+00
8.608205222384324173e+00 -3.144022414299073365e+00
8.688655738481374513e+00 -3.152229098240902250e+00
8.769106254578423076e+00 -3.150509925593713234e+00
8.849556770675475192e+00 -3.134179086667331582e+00
8.930007286772523756e+00 -3.114709891693556720e+00
9.010457802869574095e+00 -3.103444762372187249e+00
9.090908318966622659e+00 -3.086693082438141111e+00
9.171358835063672998e+00 -3.094115730002723996e+00
9.251809351160723338e+00 -3.093795512174803530e+00
9.332259867257773678e+00 -3.092184242234290004e+00
9.412710383354822241e+00 -3.102329710004065433e+00
9.493160899451872581e+00 -3.107959491670059027e+00
9.573611415548921144e+00 -3.114660968101932159e+00
9.654061931645971484e+00 -3.130878769284448637e+00
9.734512447743021823e+00 -3.143816561714013691e+00
9.814962963840072163e+00 -3.164693023497208380e+00
9.895413479937120727e+00 -3.178386155392724621e+00
9.975863996034171066e+00 -3.173842756855989933e+00
1.005631451213121963e+01 -3.166343514026613182e+00
1.013676502822827175e+01 -3.176045355934012715e+00
1.021721554432532031e+01 -3.173503296192286882e+00
1.029766606042237065e+01 -3.162957939423507003e+00
