0.000000000000000000e+00 -1.549019599857431873e-01
8.045051609704977069e-02 -2.048997091769486911e-01
1.609010321940995414e-01 -5.700727037540748166e-01
2.413515482911492982e-01 -1.250365532741715136e+00
3.218020643881990828e-01 -1.595459852882446627e+00
4.022525804852488118e-01 -2.079932267104446009e+00
4.827030965822985964e-01 -2.434083602447542294e+00
5.631536126793483810e-01 -2.798202546797709633e+00
6.436041287763981655e-01 -3.083273047075728801e+00
7.240546448734478391e-01 -3.197245248453909117e+00
8.045051609704976237e-01 -3.234592256155381929e+00
8.849556770675472972e-01 -3.291882458989130011e+00
9.654061931645971928e-01 -3.383589840085469369e+00
1.045856709261647088e+00 -3.430965370938149572e+00
1.126307225358696762e+00 -3.393522247348040644e+00
1.206757741455746435e+00 -3.334486338870224387e+00
1.287208257552796331e+00 -3.289401350151979653e+00
1.367658773649846005e+00 -3.254710003014325004e+00
1.448109289746895678e+00 -3.249282391749347632e+00
1.528559805843945352e+00 -3.281869878804635654e+00
1.609010321940995247e+00 -3.277670053661275062e+00
1.689460838038045143e+00 -3.276906512399178517e+00
1.769911354135094594e+00 -3.210963765361644739e+00
1.850361870232144490e+00 -3.126156925747178850e+00
1.930812386329194386e+00 -3.064444940375714133e+00
2.011262902426244281e+00 -2.982246902254205967e+00
2.091713418523294177e+00 -2.950830603823288989e+00
2.172163934620343628e+00 -2.931354266500224348e+00
2.252614450717393524e+00 -2.950628322722285368e+00
2.333064966814443419e+00 -2.972433028749155159e+00
2.413515482911492871e+00 -2.920119131690988912e+00
2.493965999008542767e+00 -2.852918128088352212e+00
2.574416515105592662e+00 -2.827428756906951612e+00
2.654867031202642558e+00 -2.845113024682945024e+00
2.735317547299692009e+00 -2.892090241063573597e+00
2.815768063396741905e+00 -2.937195856095754731e+00
2.896218579493791356e+00 -2.965829608275577289e+00
2.976669095590841252e+00 -2.953935164688630710e+00
3.057119611687890703e+00 -2.912434192473081662e+00
3.137570127784940599e+00 -2.898165444324585671e+00
3.218020643881990495e+00 -2.910329892240836269e+00
3.298471159979039946e+00 -2.900150067385830699e+00
3.378921676076090286e+00 -2.855116850070750445e+00
3.459372192173139737e+00 -2.867184404539534714e+00
3.539822708270189189e+00 -2.931499868896537020e+00
3.620273224367239528e+00 -2.960877308319613377e+00
3.700723740464288980e+00 -2.944963841538927873e+00
3.781174256561339320e+00 -2.907059846191384800e+00
3.861624772658388771e+00 -2.885059431608910874e+00
3.942075288755438223e+00 -2.883464915440586029e+00
4.022525804852488562e+00 -2.888329023864485201e+00
4.102976320949538014e+00 -2.928152597941322988e+00
4.183426837046588354e+00 -2.976118372429160885e+00
4.263877353143637805e+00 -2.948783413804927367e+00
4.344327869240687257e+00 -2.917237384374889331e+00
4.424778385337737596e+00 -2.917662739414886630e+00
4.505228901434787048e+00 -2.938989886751026237e+00
4.585679417531836499e+00 -2.973782320464822604e+00
4.666129933628886839e+00 -2.976780161503583155e+00
4.746580449725936290e+00 -2.926701237097870667e+00
4.827030965822985742e+00 -2.890583435853481209e+00
4.907481481920036082e+00 -2.888709190984832809e+00
4.987931998017085533e+00 -2.928366626274482520e+00
5.068382514114135873e+00 -3.006451192144632856e+00
5.148833030211185324e+00 -3.033080115663167042e+00
5.229283546308234776e+00 -3.011944908508768837e+00
5.309734062405285115e+00 -3.002295635521954775e+00
5.390184578502334567e+00 -3.010304074749989400e+00
5.470635094599384018e+00 -3.013459794362224109e+00
5.551085610696433470e+00 -3.023679997121314411e+00
5.631536126793483810e+00 -3.065282409671105768e+00
5.711986642890533261e+00 -3.094353416149330460e+00
5.792437158987582713e+00 -3.087074276501544201e+00
5.872887675084633052e+00 -3.033447787538362306e+00
5.953338191181682504e+00 -3.008016035347171879e+00
6.033788707278731955e+00 -3.036462755306962524e+00
6.114239223375781407e+00 -3.089299297282042556e+00
6.194689739472831747e+00 -3.068743055286661026e+00
6.275140255569881198e+00 -3.016484746760412339e+00
6.355590771666931538e+00 -2.983145299250210325e+00
6.436041287763980989e+00 -2.977001080117936294e+00
6.516491803861030441e+00 -2.998974441751193432e+00
6.596942319958079892e+00 -3.022046667849880297e+00
6.677392836055131120e+00 -3.031971691841030214e+00
6.757843352152180572e+00 -3.016104821773826661e+00
6.838293868249230023e+00 -3.017713067574725461e+00
6.918744384346279475e+00 -3.043032743244255656e+00
6.999194900443328926e+00 -3.037159947721889353e+00
7.079645416540378378e+00 -3.033027821199203888e+00
7.160095932637429605e+00 -3.038671326284609897e+00
7.240546448734479057e+00 -3.023637245709616561e+00
7.320996964831528508e+00 -3.003471016766633639e+00
7.401447480928577960e+00 -2.998020869434135705e+00
7.481897997025627411e+00 -3.029960953734409213e+00
7.562348513122678639e+00 -3.054009413914467341e+00
7.642799029219728091e+00 -3.054956606905601557e+00
7.723249545316777542e+00 -3.035208558378551746e+00
7.803700061413826994e+00 -3.055889578902631243e+00
7.884150577510876445e+00 -3.073436891608218868e+00
7.964601093607927673e+00 -3.063750254777485083e+00
8.045051609704977125e+00 -3.078417461528108579e+00
8.125502125802025688e+00 -3.077378438728963328e+00
8.205952641899076028e+00 -3.045404554672562547e+00
8.286403157996124591e+00 -3.016058222352786089e+00
8.366853674093176707e+00 -3.012520635756451792e+00
8.447304190190225270e+00 -3.046354678400970073e+00
8.527754706287275610e+00 -3.076917816753454549e+00
8.608205222384324173e+00 -3.096864622515589804e+00
8.688655738481374513e+00 -3.068586901701551017e+00
8.769106254578423076e+00 -3.072885715436876719e+00
8.849556770675475192e+00 -3.104549153641088743e+00
8.930007286772523756e+00 -3.126491658638332893e+00
9.010457802869574095e+00 -3.128194133854333536e+00
9.090908318966622659e+00 -3.114648854303890602e+00
9.171358835063672998e+00 -3.103697634603394651e+00
9.251809351160723338e+00 -3.120659233869217619e+00
9.332259867257773678e+00 -3.123912031031754744e+00
9.412710383354822241e+00 -3.133581835068540045e+00
9.493160899451872581e+00 -3.147263688032801543e+00
9.573611415548921144e+00 -3.164798191089775781e+00
9.654061931645971484e+00 -3.173016112847044656e+00
9.734512447743021823e+00 -3.141926491434142932e+00
9.814962963840072163e+00 -3.106277932542656384e+00
9.895413479937120727e+00 -3.104652446173097768e+00
9.975863996034171066e+00 -3.114137958745642809e+00
1.005631451213121963e+01 -3.118779895560980453e+00
1.013676502822827175e+01 -3.128570225540376892e+00
1.021721554432532031e+01 -3.136890477171171643e+00
1.029766606042237065e+01 -3.148768746532704554e+00
