0.000000000000000000e+00 -1.549019599857431873e-01
8.045051609704977069e-02 -1.830975770135954972e-01
1.609010321940995414e-01 -4.808119396065432816e-01
2.413515482911492982e-01 -1.512828331785572633e+00
3.218020643881990828e-01 -2.220939050958596450e+00
4.022525804852488118e-01 -2.543289896923447646e+00
4.827030965822985964e-01 -2.964305619784795454e+00
5.631536126793483810e-01 -3.404979142565561112e+00
6.436041287763981655e-01 -3.631878157890696457e+00
7.240546448734478391e-01 -3.699341395025235180e+00
8.045051609704976237e-01 -3.707035854176238487e+00
8.849556770675472972e-01 -3.717644512976896465e+00
9.654061931645971928e-01 -3.724129607945944276e+00
1.045856709261647088e+00 -3.727901637907685028e+00
1.126307225358696762e+00 -3.777848347140771335e+00
1.206757741455746435e+00 -3.846413153546346386e+00
1.287208257552796331e+00 -3.869693129186525304e+00
1.367658773649846005e+00 -3.773796854913721077e+00
1.448109289746895678e+00 -3.676259642638618708e+00
1.528559805843945352e+00 -3.628726802174305099e+00
1.609010321940995247e+00 -3.576573258965360935e+00
1.689460838038045143e+00 -3.537650797106645761e+00
1.769911354135094594e+00 -3.491286997113877355e+00
1.850361870232144490e+00 -3.460401594623788046e+00
1.930812386329194386e+00 -3.415502502587743461e+00
2.011262902426244281e+00 -3.365179264715670637e+00
2.091713418523294177e+00 -3.313712823706039590e+00
2.172163934620343628e+00 -3.246959471842801648e+00
2.252614450717393524e+00 -3.204293308477083713e+00
2.333064966814443419e+00 -3.202192275409012634e+00
2.413515482911492871e+00 -3.231385939119668649e+00
2.493965999008542767e+00 -3.267247195926426873e+00
2.574416515105592662e+00 -3.272554899176272070e+00
2.654867031202642558e+00 -3.263898922053065199e+00
2.735317547299692009e+00 -3.261363456162091445e+00
2.815768063396741905e+00 -3.279590789392302863e+00
2.896218579493791356e+00 -3.254263377935249224e+00
2.976669095590841252e+00 -3.206676991633601315e+00
3.057119611687890703e+00 -3.187330179381108408e+00
3.137570127784940599e+00 -3.185877669568108583e+00
3.218020643881990495e+00 -3.191085788636804477e+00
3.298471159979039946e+00 -3.209622737175959806e+00
3.378921676076090286e+00 -3.253668927430924285e+00
3.459372192173139737e+00 -3.280695994650696168e+00
3.539822708270189189e+00 -3.299507861658374175e+00
3.620273224367239528e+00 -3.297843393120351685e+00
3.700723740464288980e+00 -3.320997683501887732e+00
3.781174256561339320e+00 -3.323600764868219315e+00
3.861624772658388771e+00 -3.299117951648924851e+00
3.942075288755438223e+00 -3.242084294252323584e+00
4.022525804852488562e+00 -3.196644828172237052e+00
4.102976320949538014e+00 -3.191858612046520438e+00
4.183426837046588354e+00 -3.210354451371254747e+00
4.263877353143637805e+00 -3.230515533746242784e+00
4.344327869240687257e+00 -3.221146725087365770e+00
4.424778385337737596e+00 -3.208278772999480388e+00
4.505228901434787048e+00 -3.221033464309044358e+00
4.585679417531836499e+00 -3.237375131775726889e+00
4.666129933628886839e+00 -3.223236935706629058e+00
4.746580449725936290e+00 -3.235261835537410313e+00
4.827030965822985742e+00 -3.269686184088641312e+00
4.907481481920036082e+00 -3.281790374211977390e+00
4.987931998017085533e+00 -3.279260580476713649e+00
5.068382514114135873e+00 -3.275793318038183966e+00
5.148833030211185324e+00 -3.259329755542871521e+00
5.229283546308234776e+00 -3.249067944711579781e+00
5.309734062405285115e+00 -3.276287163133974278e+00
5.390184578502334567e+00 -3.320946854894613054e+00
5.470635094599384018e+00 -3.293657165368122808e+00
5.551085610696433470e+00 -3.259589337333566483e+00
5.631536126793483810e+00 -3.252661282954235400e+00
5.711986642890533261e+00 -3.270624004590547695e+00
5.792437158987582713e+00 -3.280090114859196326e+00
5.872887675084633052e+00 -3.293756296139596529e+00
5.953338191181682504e+00 -3.300561667469062765e+00
6.033788707278731955e+00 -3.277869105963911345e+00
6.114239223375781407e+00 -3.264565871045964407e+00
6.194689739472831747e+00 -3.254419254107738357e+00
6.275140255569881198e+00 -3.219785465289251913e+00
6.355590771666931538e+00 -3.208021556780976002e+00
6.436041287763980989e+00 -3.213070795138131430e+00
6.516491803861030441e+00 -3.211634205652646568e+00
6.596942319958079892e+00 -3.235836395360806250e+00
6.677392836055131120e+00 -3.266496257489926780e+00
6.757843352152180572e+00 -3.287315700144033848e+00
6.838293868249230023e+00 -3.281067116144395612e+00
6.918744384346279475e+00 -3.273932572383181139e+00
6.999194900443328926e+00 -3.274795956046269385e+00
7.079645416540378378e+00 -3.266322050329645954e+00
7.160095932637429605e+00 -3.290425261572945015e+00
7.240546448734479057e+00 -3.314308980767211477e+00
7.320996964831528508e+00 -3.315390942086705373e+00
7.401447480928577960e+00 -3.319146219415764598e+00
7.481897997025627411e+00 -3.311153631192669256e+00
7.562348513122678639e+00 -3.297603352244768082e+00
7.642799029219728091e+00 -3.305944887500565255e+00
7.723249545316777542e+00 -3.322093397966162431e+00
7.803700061413826994e+00 -3.324290985111761909e+00
7.884150577510876445e+00 -3.315857482653258081e+00
7.964601093607927673e+00 -3.310668256255837605e+00
8.045051609704977125e+00 -3.320785239327548766e+00
8.125502125802025688e+00 -3.329096612342433481e+00
8.205952641899076028e+00 -3.327391599123483257e+00
8.286403157996124591e+00 -3.324322865492810308e+00
8.366853674093176707e+00 -3.346166359379330490e+00
8.447304190190225270e+00 -3.373765708990311918e+00
8.527754706287275610e+00 -3.377983453951441728e+00
8.608205222384324173e+00 -3.354910789762182155e+00
8.688655738481374513e+00 -3.338823499561769381e+00
8.769106254578423076e+00 -3.341572126361052497e+00
8.849556770675475192e+00 -3.349703341843152327e+00
8.930007286772523756e+00 -3.328503426161729450e+00
9.010457802869574095e+00 -3.322350048753085261e+00
9.090908318966622659e+00 -3.322707076178281760e+00
9.171358835063672998e+00 -3.338180319304270061e+00
9.251809351160723338e+00 -3.375917242082012049e+00
9.332259867257773678e+00 -3.407495039987212149e+00
9.412710383354822241e+00 -3.405821287151508781e+00
9.493160899451872581e+00 -3.385146807629201060e+00
9.573611415548921144e+00 -3.352113485442617780e+00
9.654061931645971484e+00 -3.328503014825069606e+00
9.734512447743021823e+00 -3.345123697947191665e+00
9.814962963840072163e+00 -3.388369175734602834e+00
9.895413479937120727e+00 -3.428510649449928671e+00
9.975863996034171066e+00 -3.445052381767492289e+00
1.005631451213121963e+01 -3.442924668173086289e+00
1.013676502822827175e+01 -3.442138890654745875e+00
1.021721554432532031e+01 -3.442332043469643388e+00
1.029766606042237065e+01 -3.432123718930261802e+00
