0.000000000000000000e+00 -1.549019599857431873e-01
8.045051609704977069e-02 -1.915022865228475091e-01
1.609010321940995414e-01 -5.252260655086788965e-01
2.413515482911492982e-01 -1.404553551054957605e+00
3.218020643881990828e-01 -2.022415413320413968e+00
4.022525804852488118e-01 -2.359361571016177717e+00
4.827030965822985964e-01 -2.825167927117488098e+00
5.631536126793483810e-01 -3.308395692429947132e+00
6.436041287763981655e-01 -3.379457275321620546e+00
7.240546448734478391e-01 -3.430328777474423330e+00
8.045051609704976237e-01 -3.510651040984267723e+00
8.849556770675472972e-01 -3.611674875218489955e+00
9.654061931645971928e-01 -3.691403199346749542e+00
1.045856709261647088e+00 -3.724475066146907043e+00
1.126307225358696762e+00 -3.789217474172812405e+00
1.206757741455746435e+00 -3.864696236569767240e+00
1.287208257552796331e+00 -3.899449973825778848e+00
1.367658773649846005e+00 -3.899747764311113141e+00
1.448109289746895678e+00 -3.807923687552650982e+00
1.528559805843945352e+00 -3.648068456380014535e+00
1.609010321940995247e+00 -3.523132492710111308e+00
1.689460838038045143e+00 -3.509085790866440124e+00
1.769911354135094594e+00 -3.505226023359491627e+00
1.850361870232144490e+00 -3.436686691420943518e+00
1.930812386329194386e+00 -3.320322674090477655e+00
2.011262902426244281e+00 -3.243432700241912769e+00
2.091713418523294177e+00 -3.251747790884143452e+00
2.172163934620343628e+00 -3.275245101428549077e+00
2.252614450717393524e+00 -3.238233241249654171e+00
2.333064966814443419e+00 -3.214658346183926430e+00
2.413515482911492871e+00 -3.253632335224285299e+00
2.493965999008542767e+00 -3.259692043522016025e+00
2.574416515105592662e+00 -3.225497846930075685e+00
2.654867031202642558e+00 -3.213323387816765297e+00
2.735317547299692009e+00 -3.232655730771835767e+00
2.815768063396741905e+00 -3.246696587222376529e+00
2.896218579493791356e+00 -3.237653645239878752e+00
2.976669095590841252e+00 -3.217100673442282677e+00
3.057119611687890703e+00 -3.197502180197800303e+00
3.137570127784940599e+00 -3.194462103649935880e+00
3.218020643881990495e+00 -3.209770822974302718e+00
3.298471159979039946e+00 -3.231468878844473203e+00
3.378921676076090286e+00 -3.242217842978789122e+00
3.459372192173139737e+00 -3.253722898069515868e+00
3.539822708270189189e+00 -3.238453983237184808e+00
3.620273224367239528e+00 -3.203013797632169091e+00
3.700723740464288980e+00 -3.182792567909629167e+00
3.781174256561339320e+00 -3.215171845843602050e+00
3.861624772658388771e+00 -3.259196678612920284e+00
3.942075288755438223e+00 -3.268670197578599446e+00
4.022525804852488562e+00 -3.254799209824679629e+00
4.102976320949538014e+00 -3.252495614987943817e+00
4.183426837046588354e+00 -3.267364525222326233e+00
4.263877353143637805e+00 -3.274314905297363687e+00
4.344327869240687257e+00 -3.257228385570434703e+00
4.424778385337737596e+00 -3.241164148267239309e+00
4.505228901434787048e+00 -3.235131057835595847e+00
4.585679417531836499e+00 -3.223130264364320485e+00
4.666129933628886839e+00 -3.200062172574847708e+00
4.746580449725936290e+00 -3.193560642141946015e+00
4.827030965822985742e+00 -3.209006047056405464e+00
4.907481481920036082e+00 -3.199941513865484310e+00
4.987931998017085533e+00 -3.191880659728463687e+00
5.068382514114135873e+00 -3.243334125740325202e+00
5.148833030211185324e+00 -3.300028409347304237e+00
5.229283546308234776e+00 -3.299438893302461207e+00
5.309734062405285115e+00 -3.271416837240899156e+00
5.390184578502334567e+00 -3.253360538052527229e+00
5.470635094599384018e+00 -3.243741432283291815e+00
5.551085610696433470e+00 -3.200922742799816145e+00
5.631536126793483810e+00 -3.168130194329608074e+00
5.711986642890533261e+00 -3.187859967882956891e+00
5.792437158987582713e+00 -3.215777745242970109e+00
5.872887675084633052e+00 -3.196415249520323965e+00
5.953338191181682504e+00 -3.188700055724645210e+00
6.033788707278731955e+00 -3.227340402255498120e+00
6.114239223375781407e+00 -3.253675534674194125e+00
6.194689739472831747e+00 -3.278850605283905040e+00
6.275140255569881198e+00 -3.278580162781095098e+00
6.355590771666931538e+00 -3.282605521831688744e+00
6.436041287763980989e+00 -3.283965143766388373e+00
6.516491803861030441e+00 -3.289418329832219712e+00
6.596942319958079892e+00 -3.287511982070528749e+00
6.677392836055131120e+00 -3.293509582043297357e+00
6.757843352152180572e+00 -3.295854961812092920e+00
6.838293868249230023e+00 -3.300074231337849273e+00
6.918744384346279475e+00 -3.282758941980868705e+00
6.999194900443328926e+00 -3.262424139328869988e+00
7.079645416540378378e+00 -3.250585259330606380e+00
7.160095932637429605e+00 -3.258725532184868712e+00
7.240546448734479057e+00 -3.273042155578114620e+00
7.320996964831528508e+00 -3.317699510007436903e+00
7.401447480928577960e+00 -3.334188294309295753e+00
7.481897997025627411e+00 -3.343584419474780134e+00
7.562348513122678639e+00 -3.343139680415419424e+00
7.642799029219728091e+00 -3.358372054989839484e+00
7.723249545316777542e+00 -3.361167479174068440e+00
7.803700061413826994e+00 -3.362772276099636581e+00
7.884150577510876445e+00 -3.339084106902148186e+00
7.964601093607927673e+00 -3.321341474607828470e+00
8.045051609704977125e+00 -3.323302935550165316e+00
8.125502125802025688e+00 -3.333391073148411987e+00
8.205952641899076028e+00 -3.329686421977237742e+00
8.286403157996124591e+00 -3.319314925261419358e+00
8.366853674093176707e+00 -3.318258978639086365e+00
8.447304190190225270e+00 -3.352882432059931084e+00
8.527754706287275610e+00 -3.379172615285987114e+00
8.608205222384324173e+00 -3.379102036065909420e+00
8.688655738481374513e+00 -3.379670260011871541e+00
8.769106254578423076e+00 -3.362295944585345087e+00
8.849556770675475192e+00 -3.324166968265139577e+00
8.930007286772523756e+00 -3.307932946869995394e+00
9.010457802869574095e+00 -3.318954417669087498e+00
9.090908318966622659e+00 -3.326161732199060417e+00
9.171358835063672998e+00 -3.317752669251855746e+00
9.251809351160723338e+00 -3.350321767813863705e+00
9.332259867257773678e+00 -3.370029957746819793e+00
9.412710383354822241e+00 -3.389603441396274786e+00
9.493160899451872581e+00 -3.418181518542103614e+00
9.573611415548921144e+00 -3.411148036287874774e+00
9.654061931645971484e+00 -3.379721095582161272e+00
9.734512447743021823e+00 -3.370734823547459680e+00
9.814962963840072163e+00 -3.365250010689093241e+00
9.895413479937120727e+00 -3.340345271376997882e+00
9.975863996034171066e+00 -3.328518057881803216e+00
1.005631451213121963e+01 -3.335443928357731291e+00
1.013676502822827175e+01 -3.370932438364557804e+00
1.021721554432532031e+01 -3.420421725604866570e+00
1.029766606042237065e+01 -3.447176246366404850e+00
