0.000000000000000000e+00 -1.549019599857431873e-01
8.045051609704977069e-02 -1.965858557179761823e-01
1.609010321940995414e-01 -5.179769878682973783e-01
2.413515482911492982e-01 -1.110023355472921303e+00
3.218020643881990828e-01 -1.535330222948954049e+00
4.022525804852488118e-01 -2.201743881537611358e+00
4.827030965822985964e-01 -2.719508950902269628e+00
5.631536126793483810e-01 -2.974702512355736683e+00
6.436041287763981655e-01 -3.097278039923701876e+00
7.240546448734478391e-01 -3.265849241098570221e+00
8.045051609704976237e-01 -3.463588378142501867e+00
8.849556770675472972e-01 -3.643030445722753807e+00
9.654061931645971928e-01 -3.707929504188581138e+00
1.045856709261647088e+00 -3.765959497394305799e+00
1.126307225358696762e+00 -3.816682632468277436e+00
1.206757741455746435e+00 -3.771773458849326133e+00
1.287208257552796331e+00 -3.680548222853228690e+00
1.367658773649846005e+00 -3.643686713473160754e+00
1.448109289746895678e+00 -3.639393385928398228e+00
1.528559805843945352e+00 -3.613023403532880984e+00
1.609010321940995247e+00 -3.569027415178553042e+00
1.689460838038045143e+00 -3.519122063821545243e+00
1.769911354135094594e+00 -3.445871825859001980e+00
1.850361870232144490e+00 -3.404408461958859267e+00
1.930812386329194386e+00 -3.386842218190877940e+00
2.011262902426244281e+00 -3.339187957763005254e+00
2.091713418523294177e+00 -3.286396060637187588e+00
2.172163934620343628e+00 -3.251923583915885096e+00
2.252614450717393524e+00 -3.183587406456905189e+00
2.333064966814443419e+00 -3.155636638247885539e+00
2.413515482911492871e+00 -3.154280244481109552e+00
2.493965999008542767e+00 -3.185713444304435260e+00
2.574416515105592662e+00 -3.242168525541917035e+00
2.654867031202642558e+00 -3.294470414993427188e+00
2.735317547299692009e+00 -3.265130438839072280e+00
2.815768063396741905e+00 -3.260202774595078345e+00
2.896218579493791356e+00 -3.277974218594985167e+00
2.976669095590841252e+00 -3.268156710573908885e+00
3.057119611687890703e+00 -3.265099450221506050e+00
3.137570127784940599e+00 -3.289430234232407546e+00
3.218020643881990495e+00 -3.295143767691422365e+00
3.298471159979039946e+00 -3.297435063570760772e+00
3.378921676076090286e+00 -3.254411140069040531e+00
3.459372192173139737e+00 -3.213924735672089028e+00
3.539822708270189189e+00 -3.210949043449100593e+00
3.620273224367239528e+00 -3.246242220214334395e+00
3.700723740464288980e+00 -3.253066000474999608e+00
3.781174256561339320e+00 -3.237110629439178489e+00
3.861624772658388771e+00 -3.232837050420356739e+00
3.942075288755438223e+00 -3.253412052746111893e+00
4.022525804852488562e+00 -3.237559897871600700e+00
4.102976320949538014e+00 -3.218492348919817392e+00
4.183426837046588354e+00 -3.200886546831449131e+00
4.263877353143637805e+00 -3.189580294810458128e+00
4.344327869240687257e+00 -3.212600235249063907e+00
4.424778385337737596e+00 -3.246732861686430827e+00
4.505228901434787048e+00 -3.285164244420354596e+00
4.585679417531836499e+00 -3.315943397361361011e+00
4.666129933628886839e+00 -3.315284891962520408e+00
4.746580449725936290e+00 -3.322174007514338445e+00
4.827030965822985742e+00 -3.288180706736289594e+00
4.907481481920036082e+00 -3.281803506665700532e+00
4.987931998017085533e+00 -3.275347701415950663e+00
5.068382514114135873e+00 -3.279563128846292308e+00
5.148833030211185324e+00 -3.272326006798043085e+00
5.229283546308234776e+00 -3.262807167987917811e+00
5.309734062405285115e+00 -3.280965181057860836e+00
5.390184578502334567e+00 -3.315613565741613922e+00
5.470635094599384018e+00 -3.320886894187045080e+00
5.551085610696433470e+00 -3.299225498487630137e+00
5.631536126793483810e+00 -3.299599840676785689e+00
5.711986642890533261e+00 -3.322424352982288998e+00
5.792437158987582713e+00 -3.296707064205550264e+00
5.872887675084633052e+00 -3.293947180756606308e+00
5.953338191181682504e+00 -3.302259709300255253e+00
6.033788707278731955e+00 -3.320219742270011043e+00
6.114239223375781407e+00 -3.331776837589516926e+00
6.194689739472831747e+00 -3.315375620553997038e+00
6.275140255569881198e+00 -3.298555180792302366e+00
6.355590771666931538e+00 -3.292091654883629648e+00
6.436041287763980989e+00 -3.286364759355960175e+00
6.516491803861030441e+00 -3.270761354902242068e+00
6.596942319958079892e+00 -3.259032280882361299e+00
6.677392836055131120e+00 -3.271359627446187357e+00
6.757843352152180572e+00 -3.273213996839352102e+00
6.838293868249230023e+00 -3.279133187604279964e+00
6.918744384346279475e+00 -3.276589161598588706e+00
6.999194900443328926e+00 -3.284675809386556011e+00
7.079645416540378378e+00 -3.305561262349851148e+00
7.160095932637429605e+00 -3.335954257819722102e+00
7.240546448734479057e+00 -3.348598114685205296e+00
7.320996964831528508e+00 -3.359566581061313340e+00
7.401447480928577960e+00 -3.376561867592886124e+00
7.481897997025627411e+00 -3.410478663327920046e+00
7.562348513122678639e+00 -3.430173262503164011e+00
7.642799029219728091e+00 -3.430652374857410258e+00
7.723249545316777542e+00 -3.427785156152876489e+00
7.803700061413826994e+00 -3.424639420287923119e+00
7.884150577510876445e+00 -3.398583155041891235e+00
7.964601093607927673e+00 -3.378787302129766523e+00
8.045051609704977125e+00 -3.360596884282305297e+00
8.125502125802025688e+00 -3.347951759115611825e+00
8.205952641899076028e+00 -3.360788358006464360e+00
8.286403157996124591e+00 -3.367199205400561279e+00
8.366853674093176707e+00 -3.370080165880885215e+00
8.447304190190225270e+00 -3.369902179351931704e+00
8.527754706287275610e+00 -3.359981458864430337e+00
8.608205222384324173e+00 -3.365621232984616018e+00
8.688655738481374513e+00 -3.407745415801790578e+00
8.769106254578423076e+00 -3.435234962951653870e+00
8.849556770675475192e+00 -3.431911482507414846e+00
8.930007286772523756e+00 -3.426935511930525813e+00
9.010457802869574095e+00 -3.429229879738479703e+00
9.090908318966622659e+00 -3.428979832610768774e+00
9.171358835063672998e+00 -3.412673857253421872e+00
9.251809351160723338e+00 -3.403251173217854753e+00
9.332259867257773678e+00 -3.393601670607917953e+00
9.412710383354822241e+00 -3.422839256496233773e+00
9.493160899451872581e+00 -3.455626519349829451e+00
9.573611415548921144e+00 -3.458112832002409487e+00
9.654061931645971484e+00 -3.443578248945121878e+00
9.734512447743021823e+00 -3.432602610475826932e+00
9.814962963840072163e+00 -3.410414492318390334e+00
9.895413479937120727e+00 -3.391782033791993278e+00
9.975863996034171066e+00 -3.403333309235686333e+00
1.005631451213121963e+01 -3.442158847188824033e+00
1.013676502822827175e+01 -3.483446153149384106e+00
1.021721554432532031e+01 -3.501323280392370396e+00
1.029766606042237065e+01 -3.509775801824413843e+00
