0.000000000000000000e+00 -1.549019599857431873e-01
8.045051609704977069e-02 -1.972238113237800017e-01
1.609010321940995414e-01 -4.848812657617865840e-01
2.413515482911492982e-01 -1.133346343718109495e+00
3.218020643881990828e-01 -1.667140110963679422e+00
4.022525804852488118e-01 -2.425975849381466265e+00
4.827030965822985964e-01 -2.982902517194387038e+00
5.631536126793483810e-01 -3.142941654838427468e+00
6.436041287763981655e-01 -3.267510993997097213e+00
7.240546448734478391e-01 -3.355862703433114547e+00
8.045051609704976237e-01 -3.532826473054639482e+00
8.849556770675472972e-01 -3.744661506872319912e+00
9.654061931645971928e-01 -3.775300582635159774e+00
1.045856709261647088e+00 -3.750217779445057076e+00
1.126307225358696762e+00 -3.743619787971050883e+00
1.206757741455746435e+00 -3.681686723590518184e+00
1.287208257552796331e+00 -3.647949324441497776e+00
1.367658773649846005e+00 -3.644742984808820196e+00
1.448109289746895678e+00 -3.617384668164181694e+00
1.528559805843945352e+00 -3.537934132906676687e+00
1.609010321940995247e+00 -3.488154410184833409e+00
1.689460838038045143e+00 -3.468236022040335431e+00
1.769911354135094594e+00 -3.425059886504127071e+00
1.850361870232144490e+00 -3.366783325746877331e+00
1.930812386329194386e+00 -3.309914746710011624e+00
2.011262902426244281e+00 -3.232383530673826222e+00
2.091713418523294177e+00 -3.178261696726878860e+00
2.172163934620343628e+00 -3.165957478760564658e+00
2.252614450717393524e+00 -3.204234808719567340e+00
2.333064966814443419e+00 -3.247159528478068324e+00
2.413515482911492871e+00 -3.262349367857809046e+00
2.493965999008542767e+00 -3.237680081655097020e+00
2.574416515105592662e+00 -3.249132140439468852e+00
2.654867031202642558e+00 -3.264917558036390055e+00
2.735317547299692009e+00 -3.279821824472658243e+00
2.815768063396741905e+00 -3.298945882789914297e+00
2.896218579493791356e+00 -3.353118157357276807e+00
2.976669095590841252e+00 -3.402726670331044811e+00
3.057119611687890703e+00 -3.391051469439586796e+00
3.137570127784940599e+00 -3.331989070346809800e+00
3.218020643881990495e+00 -3.275069194567377551e+00
3.298471159979039946e+00 -3.243062267387551323e+00
3.378921676076090286e+00 -3.249968334958674099e+00
3.459372192173139737e+00 -3.254205761946717512e+00
3.539822708270189189e+00 -3.236113202644413267e+00
3.620273224367239528e+00 -3.214788630024222993e+00
3.700723740464288980e+00 -3.209687530791091259e+00
3.781174256561339320e+00 -3.204297152494331780e+00
3.861624772658388771e+00 -3.174232683484127904e+00
3.942075288755438223e+00 -3.153953977347649928e+00
4.022525804852488562e+00 -3.179637085561030307e+00
4.102976320949538014e+00 -3.205586756501027423e+00
4.183426837046588354e+00 -3.204656471227642633e+00
4.263877353143637805e+00 -3.205503794405157425e+00
4.344327869240687257e+00 -3.236509284521119412e+00
4.424778385337737596e+00 -3.247191782782465452e+00
4.505228901434787048e+00 -3.232049647113058644e+00
4.585679417531836499e+00 -3.246839890117271032e+00
4.666129933628886839e+00 -3.251471658083830985e+00
4.746580449725936290e+00 -3.233685917302174140e+00
4.827030965822985742e+00 -3.217194071072769557e+00
4.907481481920036082e+00 -3.227259131788331015e+00
4.987931998017085533e+00 -3.243447780478640130e+00
5.068382514114135873e+00 -3.267861082600052924e+00
5.148833030211185324e+00 -3.287489667303386209e+00
5.229283546308234776e+00 -3.292091992405186573e+00
5.309734062405285115e+00 -3.284464040920589856e+00
5.390184578502334567e+00 -3.282296512290213464e+00
5.470635094599384018e+00 -3.264975312939633056e+00
5.551085610696433470e+00 -3.252672144583699687e+00
5.631536126793483810e+00 -3.255458616667885163e+00
5.711986642890533261e+00 -3.286324278414139322e+00
5.792437158987582713e+00 -3.329952937346257080e+00
5.872887675084633052e+00 -3.328939048973097670e+00
5.953338191181682504e+00 -3.295922502171287238e+00
6.033788707278731955e+00 -3.280357246418149408e+00
6.114239223375781407e+00 -3.268230574466210570e+00
6.194689739472831747e+00 -3.260117708100568557e+00
6.275140255569881198e+00 -3.257981355086966069e+00
6.355590771666931538e+00 -3.276698510781120621e+00
6.436041287763980989e+00 -3.306618693217713290e+00
6.516491803861030441e+00 -3.310697198774104955e+00
6.596942319958079892e+00 -3.285571210074233583e+00
6.677392836055131120e+00 -3.253663643078166690e+00
6.757843352152180572e+00 -3.216252281694103043e+00
6.838293868249230023e+00 -3.203890096117097741e+00
6.918744384346279475e+00 -3.225189619126817231e+00
6.999194900443328926e+00 -3.246301151366777216e+00
7.079645416540378378e+00 -3.255145625259840525e+00
7.160095932637429605e+00 -3.268971555826210462e+00
7.240546448734479057e+00 -3.291939814302702327e+00
7.320996964831528508e+00 -3.317457709647756658e+00
7.401447480928577960e+00 -3.353965767221045002e+00
7.481897997025627411e+00 -3.363856336084916521e+00
7.562348513122678639e+00 -3.331770177014043544e+00
7.642799029219728091e+00 -3.316020219463320373e+00
7.723249545316777542e+00 -3.314597046508249711e+00
7.803700061413826994e+00 -3.305755105710144637e+00
7.884150577510876445e+00 -3.302949896567274113e+00
7.964601093607927673e+00 -3.328613749104152753e+00
8.045051609704977125e+00 -3.359453117828638646e+00
8.125502125802025688e+00 -3.381248311929390127e+00
8.205952641899076028e+00 -3.368954440427247121e+00
8.286403157996124591e+00 -3.361258411980951433e+00
8.366853674093176707e+00 -3.363057551498895403e+00
8.447304190190225270e+00 -3.382123131742378330e+00
8.527754706287275610e+00 -3.389085889764281490e+00
8.608205222384324173e+00 -3.394392714745385842e+00
8.688655738481374513e+00 -3.395029789502319595e+00
8.769106254578423076e+00 -3.394899560437885988e+00
8.849556770675475192e+00 -3.405353966261235765e+00
8.930007286772523756e+00 -3.397860744997663218e+00
9.010457802869574095e+00 -3.366962796103296629e+00
9.090908318966622659e+00 -3.329465469624461438e+00
9.171358835063672998e+00 -3.320994615612523848e+00
9.251809351160723338e+00 -3.358245284384159479e+00
9.332259867257773678e+00 -3.382879025460971967e+00
9.412710383354822241e+00 -3.378421731797044192e+00
9.493160899451872581e+00 -3.374236082112306967e+00
9.573611415548921144e+00 -3.381303920099603566e+00
9.654061931645971484e+00 -3.403026753645962188e+00
9.734512447743021823e+00 -3.425656898229145320e+00
9.814962963840072163e+00 -3.430817019520805644e+00
9.895413479937120727e+00 -3.444280266543673363e+00
9.975863996034171066e+00 -3.438692934229223397e+00
1.005631451213121963e+01 -3.417375519010925622e+00
1.013676502822827175e+01 -3.414682646888322015e+00
1.021721554432532031e+01 -3.424732671437359599e+00
1.029766606042237065e+01 -3.441562917959654300e+00
