0.000000000000000000e+00 -1.549019599857431873e-01
8.045051609704977069e-02 -1.932252752944115803e-01
1.609010321940995414e-01 -4.885805936129462568e-01
2.413515482911492982e-01 -1.112272464020841900e+00
3.218020643881990828e-01 -1.562248693792595677e+00
4.022525804852488118e-01 -2.111282608794783577e+00
4.827030965822985964e-01 -2.668019584643813058e+00
5.631536126793483810e-01 -2.934556455613571035e+00
6.436041287763981655e-01 -3.129032061719832836e+00
7.240546448734478391e-01 -3.292339329061589215e+00
8.045051609704976237e-01 -3.481906109351468270e+00
8.849556770675472972e-01 -3.611969937818891641e+00
9.654061931645971928e-01 -3.677076120000423387e+00
1.045856709261647088e+00 -3.686475129445603294e+00
1.126307225358696762e+00 -3.777035404025379961e+00
1.206757741455746435e+00 -3.886019610072586783e+00
1.287208257552796331e+00 -3.888748055739949194e+00
1.367658773649846005e+00 -3.795214475344262262e+00
1.448109289746895678e+00 -3.718222917274263128e+00
1.528559805843945352e+00 -3.646324725918115739e+00
1.609010321940995247e+00 -3.568419912728256094e+00
1.689460838038045143e+00 -3.524999970388147830e+00
1.769911354135094594e+00 -3.509879094424700252e+00
1.850361870232144490e+00 -3.435789397374141796e+00
1.930812386329194386e+00 -3.322196206180242140e+00
2.011262902426244281e+00 -3.241790420737737488e+00
2.091713418523294177e+00 -3.186582191833795097e+00
2.172163934620343628e+00 -3.156938631191920308e+00
2.252614450717393524e+00 -3.168502955326314652e+00
2.333064966814443419e+00 -3.165864343231119094e+00
2.413515482911492871e+00 -3.160532742931864814e+00
2.493965999008542767e+00 -3.222670530370854269e+00
2.574416515105592662e+00 -3.332991608082911394e+00
2.654867031202642558e+00 -3.360864314796229380e+00
2.735317547299692009e+00 -3.321158421205872013e+00
2.815768063396741905e+00 -3.256004025893686205e+00
2.896218579493791356e+00 -3.229786101033513823e+00
2.976669095590841252e+00 -3.262598370471615716e+00
3.057119611687890703e+00 -3.320802073837024526e+00
3.137570127784940599e+00 -3.299590545038201483e+00
3.218020643881990495e+00 -3.233925875038159425e+00
3.298471159979039946e+00 -3.207002472679610694e+00
3.378921676076090286e+00 -3.179429606592536928e+00
3.459372192173139737e+00 -3.170112959131249131e+00
3.539822708270189189e+00 -3.182980216150391506e+00
3.620273224367239528e+00 -3.186710642019810358e+00
3.700723740464288980e+00 -3.192890157820446273e+00
3.781174256561339320e+00 -3.190046708412810350e+00
3.861624772658388771e+00 -3.203422275028593447e+00
3.942075288755438223e+00 -3.233554095459856725e+00
4.022525804852488562e+00 -3.259114706645566795e+00
4.102976320949538014e+00 -3.236223091023826992e+00
4.183426837046588354e+00 -3.208292051358276886e+00
4.263877353143637805e+00 -3.218473060528354246e+00
4.344327869240687257e+00 -3.227208287192929070e+00
4.424778385337737596e+00 -3.242973526947250829e+00
4.505228901434787048e+00 -3.266471699986837507e+00
4.585679417531836499e+00 -3.259398729643497639e+00
4.666129933628886839e+00 -3.257267411715889960e+00
4.746580449725936290e+00 -3.286929390987709976e+00
4.827030965822985742e+00 -3.328103137514678345e+00
4.907481481920036082e+00 -3.352124813078555920e+00
4.987931998017085533e+00 -3.307143186571563032e+00
5.068382514114135873e+00 -3.269420650590155741e+00
5.148833030211185324e+00 -3.263133796097579253e+00
5.229283546308234776e+00 -3.257787179314663106e+00
5.309734062405285115e+00 -3.229831710744427653e+00
5.390184578502334567e+00 -3.211290796501581113e+00
5.470635094599384018e+00 -3.200883796234072154e+00
5.551085610696433470e+00 -3.221512559384778651e+00
5.631536126793483810e+00 -3.253144204667242079e+00
5.711986642890533261e+00 -3.254693961921319545e+00
5.792437158987582713e+00 -3.253357833626449924e+00
5.872887675084633052e+00 -3.295748253458002264e+00
5.953338191181682504e+00 -3.329258993853431825e+00
6.033788707278731955e+00 -3.329459476481362756e+00
6.114239223375781407e+00 -3.312031044694173865e+00
6.194689739472831747e+00 -3.291535529238695190e+00
6.275140255569881198e+00 -3.291732379133863073e+00
6.355590771666931538e+00 -3.285805794271271285e+00
6.436041287763980989e+00 -3.254423919200523319e+00
6.516491803861030441e+00 -3.223298184965928126e+00
6.596942319958079892e+00 -3.211890651663619423e+00
6.677392836055131120e+00 -3.249825896222742205e+00
6.757843352152180572e+00 -3.304311231519102332e+00
6.838293868249230023e+00 -3.328963481416560288e+00
6.918744384346279475e+00 -3.357669601897974587e+00
6.999194900443328926e+00 -3.395217903662908210e+00
7.079645416540378378e+00 -3.414241300069394747e+00
7.160095932637429605e+00 -3.410500019314920195e+00
7.240546448734479057e+00 -3.394480753699264497e+00
7.320996964831528508e+00 -3.359710171895576636e+00
7.401447480928577960e+00 -3.314667222224620957e+00
7.481897997025627411e+00 -3.288888320200297866e+00
7.562348513122678639e+00 -3.290453817368218736e+00
7.642799029219728091e+00 -3.292366660463942551e+00
7.723249545316777542e+00 -3.304017579633947044e+00
7.803700061413826994e+00 -3.311212116949934003e+00
7.884150577510876445e+00 -3.316308535073872577e+00
7.964601093607927673e+00 -3.314408265505147000e+00
8.045051609704977125e+00 -3.324951208079352849e+00
8.125502125802025688e+00 -3.334305177354195848e+00
8.205952641899076028e+00 -3.327643243685150409e+00
8.286403157996124591e+00 -3.322287671938479736e+00
8.366853674093176707e+00 -3.326793050801119200e+00
8.447304190190225270e+00 -3.334559228135295150e+00
8.527754706287275610e+00 -3.331789245204895167e+00
8.608205222384324173e+00 -3.355949908097342060e+00
8.688655738481374513e+00 -3.378283874588848157e+00
8.769106254578423076e+00 -3.399123472111605704e+00
8.849556770675475192e+00 -3.407743584127063574e+00
8.930007286772523756e+00 -3.412970676377923063e+00
9.010457802869574095e+00 -3.408670370551003970e+00
9.090908318966622659e+00 -3.402846177082355261e+00
9.171358835063672998e+00 -3.409634209065754096e+00
9.251809351160723338e+00 -3.426927986239030943e+00
9.332259867257773678e+00 -3.432199273667171813e+00
9.412710383354822241e+00 -3.409591577317406141e+00
9.493160899451872581e+00 -3.379435540869693888e+00
9.573611415548921144e+00 -3.369529118076435292e+00
9.654061931645971484e+00 -3.374014396516354264e+00
9.734512447743021823e+00 -3.395217159173356425e+00
9.814962963840072163e+00 -3.445442286664230025e+00
9.895413479937120727e+00 -3.472994587399882871e+00
9.975863996034171066e+00 -3.451483709636053554e+00
1.005631451213121963e+01 -3.418500786033591865e+00
1.013676502822827175e+01 -3.427609685774143156e+00
1.021721554432532031e+01 -3.446183248767184626e+00
1.029766606042237065e+01 -3.448875893961971251e+00
