0.000000000000000000e+00 -1.549019599857431873e-01
8.045051609704977069e-02 -2.119126670176714466e-01
1.609010321940995414e-01 -6.472340332150013920e-01
2.413515482911492982e-01 -2.287334024441880054e+00
3.218020643881990828e-01 -2.185043273827127486e+00
4.022525804852488118e-01 -1.985357166090008230e+00
4.827030965822985964e-01 -1.914283199272861502e+00
5.631536126793483810e-01 -1.952477214359639834e+00
6.436041287763981655e-01 -2.131698190210002064e+00
7.240546448734478391e-01 -2.284425672002470709e+00
8.045051609704976237e-01 -2.282964465798622111e+00
8.849556770675472972e-01 -2.225307374144984696e+00
9.654061931645971928e-01 -2.249660122021982733e+00
1.045856709261647088e+00 -2.366010829736705734e+00
1.126307225358696762e+00 -2.500867877286169882e+00
1.206757741455746435e+00 -2.575566391800340860e+00
1.287208257552796331e+00 -2.593476896086530203e+00
1.367658773649846005e+00 -2.642189956014148855e+00
1.448109289746895678e+00 -2.662574180464893026e+00
1.528559805843945352e+00 -2.635620272515572626e+00
1.609010321940995247e+00 -2.685096926195903677e+00
1.689460838038045143e+00 -2.723670717894667082e+00
1.769911354135094594e+00 -2.740962438142949154e+00
1.850361870232144490e+00 -2.753463061782138510e+00
1.930812386329194386e+00 -2.726665003499231243e+00
2.011262902426244281e+00 -2.696933533026402152e+00
2.091713418523294177e+00 -2.714225527747758271e+00
2.172163934620343628e+00 -2.737271442305539981e+00
2.252614450717393524e+00 -2.715200755318375236e+00
2.333064966814443419e+00 -2.705314715072178355e+00
2.413515482911492871e+00 -2.707847723658193040e+00
2.493965999008542767e+00 -2.684180523111389771e+00
2.574416515105592662e+00 -2.633337466113728098e+00
2.654867031202642558e+00 -2.572266382753931158e+00
2.735317547299692009e+00 -2.554083079875296924e+00
2.815768063396741905e+00 -2.575511921797333681e+00
2.896218579493791356e+00 -2.606532194530386093e+00
2.976669095590841252e+00 -2.605943153821438152e+00
3.057119611687890703e+00 -2.605175559252787210e+00
3.137570127784940599e+00 -2.598794600224838103e+00
3.218020643881990495e+00 -2.574970047203923418e+00
3.298471159979039946e+00 -2.575077662449642535e+00
3.378921676076090286e+00 -2.609260965977220792e+00
3.459372192173139737e+00 -2.632646102529796917e+00
3.539822708270189189e+00 -2.633900495301326306e+00
3.620273224367239528e+00 -2.616114418096791017e+00
3.700723740464288980e+00 -2.590192867246488451e+00
3.781174256561339320e+00 -2.576409015459908858e+00
3.861624772658388771e+00 -2.565290120450881339e+00
3.942075288755438223e+00 -2.554797723254830899e+00
4.022525804852488562e+00 -2.566668059197418472e+00
4.102976320949538014e+00 -2.589058219462757826e+00
4.183426837046588354e+00 -2.575224116597612412e+00
4.263877353143637805e+00 -2.588369410747892729e+00
4.344327869240687257e+00 -2.587941559720392970e+00
4.424778385337737596e+00 -2.594314844915168727e+00
4.505228901434787048e+00 -2.619451520642240627e+00
4.585679417531836499e+00 -2.656933154178579670e+00
4.666129933628886839e+00 -2.677185033156942673e+00
4.746580449725936290e+00 -2.665074544901217646e+00
4.827030965822985742e+00 -2.649407677663182969e+00
4.907481481920036082e+00 -2.651062478854063986e+00
4.987931998017085533e+00 -2.654690003873591220e+00
5.068382514114135873e+00 -2.682924706397254777e+00
5.148833030211185324e+00 -2.695348857687377642e+00
5.229283546308234776e+00 -2.706391183835137326e+00
5.309734062405285115e+00 -2.688951599448910823e+00
5.390184578502334567e+00 -2.679120320531146682e+00
5.470635094599384018e+00 -2.660131399101891336e+00
5.551085610696433470e+00 -2.651253019812726208e+00
5.631536126793483810e+00 -2.663112505119946238e+00
5.711986642890533261e+00 -2.690523707321197833e+00
5.792437158987582713e+00 -2.681475100121800015e+00
5.872887675084633052e+00 -2.666186822261744194e+00
5.953338191181682504e+00 -2.657232962795043729e+00
6.033788707278731955e+00 -2.631680730863081408e+00
6.114239223375781407e+00 -2.621758156704095732e+00
6.194689739472831747e+00 -2.668442594273724655e+00
6.275140255569881198e+00 -2.697216658150006996e+00
6.355590771666931538e+00 -2.681832856784543750e+00
6.436041287763980989e+00 -2.683908439799941981e+00
6.516491803861030441e+00 -2.699467527390223776e+00
6.596942319958079892e+00 -2.704187093920777052e+00
6.677392836055131120e+00 -2.719564468559556136e+00
6.757843352152180572e+00 -2.735470478208223089e+00
6.838293868249230023e+00 -2.760658102917199930e+00
6.918744384346279475e+00 -2.752198342085554472e+00
6.999194900443328926e+00 -2.727077983836818653e+00
7.079645416540378378e+00 -2.705839650345330138e+00
7.160095932637429605e+00 -2.723202738508873733e+00
7.240546448734479057e+00 -2.735025721572885260e+00
7.320996964831528508e+00 -2.731683134021670512e+00
7.401447480928577960e+00 -2.715358602065401250e+00
7.481897997025627411e+00 -2.726480977729558219e+00
7.562348513122678639e+00 -2.735066598075770461e+00
7.642799029219728091e+00 -2.747045261845938668e+00
7.723249545316777542e+00 -2.745718563862589168e+00
7.803700061413826994e+00 -2.771847284831006952e+00
7.884150577510876445e+00 -2.820183332423031874e+00
7.964601093607927673e+00 -2.857663671180771914e+00
8.045051609704977125e+00 -2.851155505398477175e+00
8.125502125802025688e+00 -2.811172521503893407e+00
8.205952641899076028e+00 -2.778127499140336187e+00
8.286403157996124591e+00 -2.781786878310056554e+00
8.366853674093176707e+00 -2.785427303992037196e+00
8.447304190190225270e+00 -2.772719025470987475e+00
8.527754706287275610e+00 -2.753840105761240054e+00
8.608205222384324173e+00 -2.750854508599685833e+00
8.688655738481374513e+00 -2.753235007736149154e+00
8.769106254578423076e+00 -2.765156548131989744e+00
8.849556770675475192e+00 -2.775602697024256216e+00
8.930007286772523756e+00 -2.774003469440943892e+00
9.010457802869574095e+00 -2.771188020795781526e+00
9.090908318966622659e+00 -2.777120478180122642e+00
9.171358835063672998e+00 -2.777829671645826171e+00
9.251809351160723338e+00 -2.797572325765050216e+00
9.332259867257773678e+00 -2.828937202923120342e+00
9.412710383354822241e+00 -2.856895788665733349e+00
9.493160899451872581e+00 -2.845352104915640279e+00
9.573611415548921144e+00 -2.827444530555344837e+00
9.654061931645971484e+00 -2.826629538042712220e+00
9.734512447743021823e+00 -2.821879817782063427e+00
9.814962963840072163e+00 -2.822193783571314452e+00
9.895413479937120727e+00 -2.828803012602345568e+00
9.975863996034171066e+00 -2.833351988186735504e+00
1.005631451213121963e+01 -2.826880404229710209e+00
1.013676502822827175e+01 -2.826847031811045685e+00
1.021721554432532031e+01 -2.811475109123581895e+00
1.029766606042237065e+01 -2.805616036838260108e+00
