0.000000000000000000e+00 -1.549019599857431873e-01
8.045051609704977069e-02 -2.048163014643288593e-01
1.609010321940995414e-01 -5.388197252163609008e-01
2.413515482911492982e-01 -1.586269524671248599e+00
3.218020643881990828e-01 -2.093100027967538690e+00
4.022525804852488118e-01 -1.873912212814756062e+00
4.827030965822985964e-01 -1.903642039431590050e+00
5.631536126793483810e-01 -2.052035470197098643e+00
6.436041287763981655e-01 -2.180542182569123355e+00
7.240546448734478391e-01 -2.250437503878600420e+00
8.045051609704976237e-01 -2.337281163733013312e+00
8.849556770675472972e-01 -2.371348137664783362e+00
9.654061931645971928e-01 -2.378370151167697788e+00
1.045856709261647088e+00 -2.417435541953031120e+00
1.126307225358696762e+00 -2.531022308909396390e+00
1.206757741455746435e+00 -2.674998617806567225e+00
1.287208257552796331e+00 -2.768936203236626703e+00
1.367658773649846005e+00 -2.773146182311122310e+00
1.448109289746895678e+00 -2.751706236621825674e+00
1.528559805843945352e+00 -2.727143566318515955e+00
1.609010321940995247e+00 -2.699252906191162538e+00
1.689460838038045143e+00 -2.714325702624766468e+00
1.769911354135094594e+00 -2.716459601602247087e+00
1.850361870232144490e+00 -2.703471443009619168e+00
1.930812386329194386e+00 -2.689340753182279720e+00
2.011262902426244281e+00 -2.676820908266200671e+00
2.091713418523294177e+00 -2.717403200127664231e+00
2.172163934620343628e+00 -2.719981821872043515e+00
2.252614450717393524e+00 -2.699883904250824251e+00
2.333064966814443419e+00 -2.692130769132193624e+00
2.413515482911492871e+00 -2.706107481257088221e+00
2.493965999008542767e+00 -2.685146166588904482e+00
2.574416515105592662e+00 -2.649223208369979599e+00
2.654867031202642558e+00 -2.659480964733958785e+00
2.735317547299692009e+00 -2.708008954464171225e+00
2.815768063396741905e+00 -2.739680878678710574e+00
2.896218579493791356e+00 -2.701026275117454301e+00
2.976669095590841252e+00 -2.681442180180010570e+00
3.057119611687890703e+00 -2.670119063664751380e+00
3.137570127784940599e+00 -2.649723422560065433e+00
3.218020643881990495e+00 -2.655384463415897844e+00
3.298471159979039946e+00 -2.707198305524256110e+00
3.378921676076090286e+00 -2.721817482217854689e+00
3.459372192173139737e+00 -2.706553561747166103e+00
3.539822708270189189e+00 -2.649397247497569552e+00
3.620273224367239528e+00 -2.585414244480772172e+00
3.700723740464288980e+00 -2.539630041040995323e+00
3.781174256561339320e+00 -2.530728955692027160e+00
3.861624772658388771e+00 -2.557654359066217964e+00
3.942075288755438223e+00 -2.595879294123568215e+00
4.022525804852488562e+00 -2.623327928407045651e+00
4.102976320949538014e+00 -2.626512195765941637e+00
4.183426837046588354e+00 -2.592495778316818544e+00
4.263877353143637805e+00 -2.587384267179734021e+00
4.344327869240687257e+00 -2.603555570232952920e+00
4.424778385337737596e+00 -2.645673255367698484e+00
4.505228901434787048e+00 -2.676770676926691017e+00
4.585679417531836499e+00 -2.667593044962981441e+00
4.666129933628886839e+00 -2.662229191667462302e+00
4.746580449725936290e+00 -2.659031936805721585e+00
4.827030965822985742e+00 -2.687711613634285790e+00
4.907481481920036082e+00 -2.689729742769467080e+00
4.987931998017085533e+00 -2.677800013013074576e+00
5.068382514114135873e+00 -2.677153754827239052e+00
5.148833030211185324e+00 -2.693080757627084321e+00
5.229283546308234776e+00 -2.709435766730219797e+00
5.309734062405285115e+00 -2.715992718385623839e+00
5.390184578502334567e+00 -2.699043893382563120e+00
5.470635094599384018e+00 -2.686519913070442467e+00
5.551085610696433470e+00 -2.692159539156057768e+00
5.631536126793483810e+00 -2.677082188167607235e+00
5.711986642890533261e+00 -2.638502333856170612e+00
5.792437158987582713e+00 -2.617785461166737271e+00
5.872887675084633052e+00 -2.647489882693583763e+00
5.953338191181682504e+00 -2.675805214165030588e+00
6.033788707278731955e+00 -2.682323859835271218e+00
6.114239223375781407e+00 -2.705674552259620835e+00
6.194689739472831747e+00 -2.724169363557290779e+00
6.275140255569881198e+00 -2.711760127600841841e+00
6.355590771666931538e+00 -2.680820349829065474e+00
6.436041287763980989e+00 -2.669508567645829444e+00
6.516491803861030441e+00 -2.680094920270085890e+00
6.596942319958079892e+00 -2.690009783976978319e+00
6.677392836055131120e+00 -2.704079126517834553e+00
6.757843352152180572e+00 -2.697843045133055284e+00
6.838293868249230023e+00 -2.690055887999533990e+00
6.918744384346279475e+00 -2.682736867186033880e+00
6.999194900443328926e+00 -2.662504730598405533e+00
7.079645416540378378e+00 -2.663016958763423148e+00
7.160095932637429605e+00 -2.681305491275302266e+00
7.240546448734479057e+00 -2.698384041461598493e+00
7.320996964831528508e+00 -2.713768861975812907e+00
7.401447480928577960e+00 -2.708364614936751735e+00
7.481897997025627411e+00 -2.684197123835863064e+00
7.562348513122678639e+00 -2.675068852328636559e+00
7.642799029219728091e+00 -2.699064650034292079e+00
7.723249545316777542e+00 -2.725697931588982215e+00
7.803700061413826994e+00 -2.707417055757871172e+00
7.884150577510876445e+00 -2.691495602104961193e+00
7.964601093607927673e+00 -2.685417607310698784e+00
8.045051609704977125e+00 -2.715589922852953642e+00
8.125502125802025688e+00 -2.723655981150404859e+00
8.205952641899076028e+00 -2.717138023917409662e+00
8.286403157996124591e+00 -2.728511733930109262e+00
8.366853674093176707e+00 -2.762465237926928552e+00
8.447304190190225270e+00 -2.802677446909524583e+00
8.527754706287275610e+00 -2.809147934577536532e+00
8.608205222384324173e+00 -2.783701430298181290e+00
8.688655738481374513e+00 -2.754693562019318254e+00
8.769106254578423076e+00 -2.766324685821565321e+00
8.849556770675475192e+00 -2.777249124833003791e+00
8.930007286772523756e+00 -2.765339630475165400e+00
9.010457802869574095e+00 -2.755106052347734202e+00
9.090908318966622659e+00 -2.778617310311615185e+00
9.171358835063672998e+00 -2.789583879543676481e+00
9.251809351160723338e+00 -2.786335387680631825e+00
9.332259867257773678e+00 -2.794134022556773900e+00
9.412710383354822241e+00 -2.832890299971966286e+00
9.493160899451872581e+00 -2.846233935510425361e+00
9.573611415548921144e+00 -2.830638974379306561e+00
9.654061931645971484e+00 -2.812188353930688667e+00
9.734512447743021823e+00 -2.796211546072646215e+00
9.814962963840072163e+00 -2.798107701288045757e+00
9.895413479937120727e+00 -2.817000067563711685e+00
9.975863996034171066e+00 -2.824662388941229452e+00
1.005631451213121963e+01 -2.822007459057773726e+00
1.013676502822827175e+01 -2.837222912285798149e+00
1.021721554432532031e+01 -2.847823170558514416e+00
1.029766606042237065e+01 -2.858572965583343617e+00
