0.000000000000000000e+00 -1.549019599857431873e-01
8.045051609704977069e-02 -2.052202770535267728e-01
1.609010321940995414e-01 -6.302840925412563911e-01
2.413515482911492982e-01 -1.975050377522665324e+00
3.218020643881990828e-01 -2.016222176208796846e+00
4.022525804852488118e-01 -1.920253488570450306e+00
4.827030965822985964e-01 -2.013235139073805691e+00
5.631536126793483810e-01 -2.172614118065219202e+00
6.436041287763981655e-01 -2.261160086081937859e+00
7.240546448734478391e-01 -2.330768953612551542e+00
8.045051609704976237e-01 -2.381091795383677212e+00
8.849556770675472972e-01 -2.424824719930283035e+00
9.654061931645971928e-01 -2.465209746792093704e+00
1.045856709261647088e+00 -2.568961502127431906e+00
1.126307225358696762e+00 -2.639370030917059129e+00
1.206757741455746435e+00 -2.615017889881451563e+00
1.287208257552796331e+00 -2.614614707011066130e+00
1.367658773649846005e+00 -2.678243127174493754e+00
1.448109289746895678e+00 -2.756255405207624687e+00
1.528559805843945352e+00 -2.794323200549898356e+00
1.609010321940995247e+00 -2.701446369504107992e+00
1.689460838038045143e+00 -2.563904516304526648e+00
1.769911354135094594e+00 -2.542015924625858236e+00
1.850361870232144490e+00 -2.606065526847318292e+00
1.930812386329194386e+00 -2.643811280443477685e+00
2.011262902426244281e+00 -2.631295318585596288e+00
2.091713418523294177e+00 -2.623291879989274378e+00
2.172163934620343628e+00 -2.662200658272698028e+00
2.252614450717393524e+00 -2.691787396206720029e+00
2.333064966814443419e+00 -2.672830137159145192e+00
2.413515482911492871e+00 -2.603940431916350828e+00
2.493965999008542767e+00 -2.550546758571161643e+00
2.574416515105592662e+00 -2.553026504805906427e+00
2.654867031202642558e+00 -2.582693212280852357e+00
2.735317547299692009e+00 -2.572139866653865070e+00
2.815768063396741905e+00 -2.575431546718215614e+00
2.896218579493791356e+00 -2.608274285373658685e+00
2.976669095590841252e+00 -2.614522373272290423e+00
3.057119611687890703e+00 -2.613870257569279154e+00
3.137570127784940599e+00 -2.624681976496237912e+00
3.218020643881990495e+00 -2.646015027674426090e+00
3.298471159979039946e+00 -2.648332813956071785e+00
3.378921676076090286e+00 -2.621530560398128706e+00
3.459372192173139737e+00 -2.601448616211918807e+00
3.539822708270189189e+00 -2.609622539387521645e+00
3.620273224367239528e+00 -2.600924053437296379e+00
3.700723740464288980e+00 -2.577144629190310621e+00
3.781174256561339320e+00 -2.569736929235372447e+00
3.861624772658388771e+00 -2.615611531438789328e+00
3.942075288755438223e+00 -2.621931821304705146e+00
4.022525804852488562e+00 -2.614625060826436975e+00
4.102976320949538014e+00 -2.630144570999837672e+00
4.183426837046588354e+00 -2.619966665738809208e+00
4.263877353143637805e+00 -2.608088281592629176e+00
4.344327869240687257e+00 -2.599099463782434061e+00
4.424778385337737596e+00 -2.589851792304600053e+00
4.505228901434787048e+00 -2.591342699961470597e+00
4.585679417531836499e+00 -2.605858734256384146e+00
4.666129933628886839e+00 -2.629063646302078450e+00
4.746580449725936290e+00 -2.623661562972621653e+00
4.827030965822985742e+00 -2.617772309219859928e+00
4.907481481920036082e+00 -2.638016622619855589e+00
4.987931998017085533e+00 -2.683607827925489797e+00
5.068382514114135873e+00 -2.701830934576588739e+00
5.148833030211185324e+00 -2.679146116008292111e+00
5.229283546308234776e+00 -2.651746214650078759e+00
5.309734062405285115e+00 -2.630394000915522668e+00
5.390184578502334567e+00 -2.636476648742731577e+00
5.470635094599384018e+00 -2.646032295490991615e+00
5.551085610696433470e+00 -2.669731184802194512e+00
5.631536126793483810e+00 -2.692644628452306232e+00
5.711986642890533261e+00 -2.687166866125145326e+00
5.792437158987582713e+00 -2.687472527442270831e+00
5.872887675084633052e+00 -2.700717218307717715e+00
5.953338191181682504e+00 -2.709842777457219576e+00
6.033788707278731955e+00 -2.693596372598367150e+00
6.114239223375781407e+00 -2.720449951256194154e+00
6.194689739472831747e+00 -2.751275280097328579e+00
6.275140255569881198e+00 -2.773523403646322549e+00
6.355590771666931538e+00 -2.772905690574499538e+00
6.436041287763980989e+00 -2.772214844268432010e+00
6.516491803861030441e+00 -2.724827034786879487e+00
6.596942319958079892e+00 -2.690779474770120583e+00
6.677392836055131120e+00 -2.697730244854902981e+00
6.757843352152180572e+00 -2.729026009410977061e+00
6.838293868249230023e+00 -2.756152525358832595e+00
6.918744384346279475e+00 -2.784040562539714436e+00
6.999194900443328926e+00 -2.768765615285898374e+00
7.079645416540378378e+00 -2.726234548257096879e+00
7.160095932637429605e+00 -2.682028921846633107e+00
7.240546448734479057e+00 -2.685485443491810287e+00
7.320996964831528508e+00 -2.707858022224899575e+00
7.401447480928577960e+00 -2.710024054650465697e+00
7.481897997025627411e+00 -2.719253409636750884e+00
7.562348513122678639e+00 -2.731864934984328919e+00
7.642799029219728091e+00 -2.741401087560753069e+00
7.723249545316777542e+00 -2.742134091129094564e+00
7.803700061413826994e+00 -2.729056525101393404e+00
7.884150577510876445e+00 -2.727464744324681334e+00
7.964601093607927673e+00 -2.721250251113050300e+00
8.045051609704977125e+00 -2.742376831662386216e+00
8.125502125802025688e+00 -2.749660733367405019e+00
8.205952641899076028e+00 -2.759809056218178291e+00
8.286403157996124591e+00 -2.777725906522295674e+00
8.366853674093176707e+00 -2.782003947664385635e+00
8.447304190190225270e+00 -2.761562110150019844e+00
8.527754706287275610e+00 -2.745538162035606078e+00
8.608205222384324173e+00 -2.733052075801887248e+00
8.688655738481374513e+00 -2.745186567722567972e+00
8.769106254578423076e+00 -2.781918670412326655e+00
8.849556770675475192e+00 -2.803164498756973710e+00
8.930007286772523756e+00 -2.799701180583701099e+00
9.010457802869574095e+00 -2.807186592640566136e+00
9.090908318966622659e+00 -2.822170958103551452e+00
9.171358835063672998e+00 -2.833901246263458962e+00
9.251809351160723338e+00 -2.824341622425212694e+00
9.332259867257773678e+00 -2.805123128753108652e+00
9.412710383354822241e+00 -2.808223356865036102e+00
9.493160899451872581e+00 -2.833460330221776680e+00
9.573611415548921144e+00 -2.844037892314655203e+00
9.654061931645971484e+00 -2.834744904414950639e+00
9.734512447743021823e+00 -2.822788483997952902e+00
9.814962963840072163e+00 -2.806755406753249638e+00
9.895413479937120727e+00 -2.786833466718670493e+00
9.975863996034171066e+00 -2.762247136376955847e+00
1.005631451213121963e+01 -2.751140628858117942e+00
1.013676502822827175e+01 -2.785027717106545175e+00
1.021721554432532031e+01 -2.836967929499150554e+00
1.029766606042237065e+01 -2.855703976802139277e+00
