0.000000000000000000e+00 -1.549019599857431873e-01
8.045051609704977069e-02 -1.964822795464075122e-01
1.609010321940995414e-01 -5.684925879139984817e-01
2.413515482911492982e-01 -1.570365526797485423e+00
3.218020643881990828e-01 -1.787564638591685462e+00
4.022525804852488118e-01 -1.633047864299663310e+00
4.827030965822985964e-01 -1.776219238706409742e+00
5.631536126793483810e-01 -2.110822798997675331e+00
6.436041287763981655e-01 -2.301225161036064115e+00
7.240546448734478391e-01 -2.303095733159805203e+00
8.045051609704976237e-01 -2.320712312933986166e+00
8.849556770675472972e-01 -2.468038755116693128e+00
9.654061931645971928e-01 -2.576682231615942786e+00
1.045856709261647088e+00 -2.649056653374556092e+00
1.126307225358696762e+00 -2.602451829419411666e+00
1.206757741455746435e+00 -2.576322309208574968e+00
1.287208257552796331e+00 -2.613603371645504936e+00
1.367658773649846005e+00 -2.667969592271838497e+00
1.448109289746895678e+00 -2.688889554610371047e+00
1.528559805843945352e+00 -2.685077875388738544e+00
1.609010321940995247e+00 -2.641548070062871290e+00
1.689460838038045143e+00 -2.606290098737688687e+00
1.769911354135094594e+00 -2.634750720647036637e+00
1.850361870232144490e+00 -2.694830005506768433e+00
1.930812386329194386e+00 -2.693037988029480356e+00
2.011262902426244281e+00 -2.702568612298548612e+00
2.091713418523294177e+00 -2.690458179771968439e+00
2.172163934620343628e+00 -2.664071725967881221e+00
2.252614450717393524e+00 -2.634899857869240858e+00
2.333064966814443419e+00 -2.609866648260393607e+00
2.413515482911492871e+00 -2.565297910934000836e+00
2.493965999008542767e+00 -2.532201381356515402e+00
2.574416515105592662e+00 -2.519953131230963539e+00
2.654867031202642558e+00 -2.526515238616491743e+00
2.735317547299692009e+00 -2.545719039825581564e+00
2.815768063396741905e+00 -2.584581948593870582e+00
2.896218579493791356e+00 -2.617386247865963078e+00
2.976669095590841252e+00 -2.613933305094071624e+00
3.057119611687890703e+00 -2.574732832944138128e+00
3.137570127784940599e+00 -2.581011452462347755e+00
3.218020643881990495e+00 -2.580640793171073533e+00
3.298471159979039946e+00 -2.544720790839660296e+00
3.378921676076090286e+00 -2.530676392966971111e+00
3.459372192173139737e+00 -2.569211740897489715e+00
3.539822708270189189e+00 -2.625779185966365503e+00
3.620273224367239528e+00 -2.673029696311520542e+00
3.700723740464288980e+00 -2.696369967995289052e+00
3.781174256561339320e+00 -2.689049059887604898e+00
3.861624772658388771e+00 -2.671040805992215272e+00
3.942075288755438223e+00 -2.675472960789311294e+00
4.022525804852488562e+00 -2.664769429289060465e+00
4.102976320949538014e+00 -2.640754215651098580e+00
4.183426837046588354e+00 -2.628792147572903470e+00
4.263877353143637805e+00 -2.663832929368384672e+00
4.344327869240687257e+00 -2.685387261607298903e+00
4.424778385337737596e+00 -2.685991186982625401e+00
4.505228901434787048e+00 -2.660699855028662242e+00
4.585679417531836499e+00 -2.614010437085696026e+00
4.666129933628886839e+00 -2.566624745183399448e+00
4.746580449725936290e+00 -2.559022068209238387e+00
4.827030965822985742e+00 -2.580215078864244393e+00
4.907481481920036082e+00 -2.626125044544076914e+00
4.987931998017085533e+00 -2.622709893492351618e+00
5.068382514114135873e+00 -2.577863455060921627e+00
5.148833030211185324e+00 -2.601255855127028394e+00
5.229283546308234776e+00 -2.670504613096731372e+00
5.309734062405285115e+00 -2.695730053331074405e+00
5.390184578502334567e+00 -2.674032856048926821e+00
5.470635094599384018e+00 -2.675894463582351612e+00
5.551085610696433470e+00 -2.700378599295874871e+00
5.631536126793483810e+00 -2.693155539931999076e+00
5.711986642890533261e+00 -2.665072402522258965e+00
5.792437158987582713e+00 -2.673180192357583973e+00
5.872887675084633052e+00 -2.699062238171900940e+00
5.953338191181682504e+00 -2.689411448335606192e+00
6.033788707278731955e+00 -2.676913704866055621e+00
6.114239223375781407e+00 -2.683727773034215502e+00
6.194689739472831747e+00 -2.700619280241930209e+00
6.275140255569881198e+00 -2.701177463937533219e+00
6.355590771666931538e+00 -2.706783031059234901e+00
6.436041287763980989e+00 -2.703419738836660091e+00
6.516491803861030441e+00 -2.698569378587143408e+00
6.596942319958079892e+00 -2.701701737650521462e+00
6.677392836055131120e+00 -2.713858442201353416e+00
6.757843352152180572e+00 -2.700740764649993242e+00
6.838293868249230023e+00 -2.690432667894446794e+00
6.918744384346279475e+00 -2.688099363550527254e+00
6.999194900443328926e+00 -2.697191151891318306e+00
7.079645416540378378e+00 -2.701689539604378076e+00
7.160095932637429605e+00 -2.714296452804447313e+00
7.240546448734479057e+00 -2.728354567568082700e+00
7.320996964831528508e+00 -2.740508380870231075e+00
7.401447480928577960e+00 -2.731647831049261566e+00
7.481897997025627411e+00 -2.733304450870160274e+00
7.562348513122678639e+00 -2.745641057985841016e+00
7.642799029219728091e+00 -2.737500456010407923e+00
7.723249545316777542e+00 -2.714760835808811112e+00
7.803700061413826994e+00 -2.711515231391594671e+00
7.884150577510876445e+00 -2.714156997918213854e+00
7.964601093607927673e+00 -2.686937167730382381e+00
8.045051609704977125e+00 -2.661213167377926236e+00
8.125502125802025688e+00 -2.683694766349022487e+00
8.205952641899076028e+00 -2.724106074209021067e+00
8.286403157996124591e+00 -2.755450564885558062e+00
8.366853674093176707e+00 -2.754823375616821224e+00
8.447304190190225270e+00 -2.721019071691038516e+00
8.527754706287275610e+00 -2.725604757691774793e+00
8.608205222384324173e+00 -2.749180940799354822e+00
8.688655738481374513e+00 -2.748126065020727538e+00
8.769106254578423076e+00 -2.721263475241957330e+00
8.849556770675475192e+00 -2.725302657689138819e+00
8.930007286772523756e+00 -2.751412057336721340e+00
9.010457802869574095e+00 -2.760827935180995674e+00
9.090908318966622659e+00 -2.761460771737882958e+00
9.171358835063672998e+00 -2.777184052021478777e+00
9.251809351160723338e+00 -2.797257410532023592e+00
9.332259867257773678e+00 -2.818256310964659672e+00
9.412710383354822241e+00 -2.824199335764930208e+00
9.493160899451872581e+00 -2.817180924552049603e+00
9.573611415548921144e+00 -2.797098900973999491e+00
9.654061931645971484e+00 -2.806102962589112515e+00
9.734512447743021823e+00 -2.823612655670364902e+00
9.814962963840072163e+00 -2.834406939399010117e+00
9.895413479937120727e+00 -2.827506906197245318e+00
9.975863996034171066e+00 -2.825568579502268030e+00
1.005631451213121963e+01 -2.823666620478358258e+00
1.013676502822827175e+01 -2.823601501834061445e+00
1.021721554432532031e+01 -2.817131672283139210e+00
1.029766606042237065e+01 -2.809243123993140134e+00
