0.000000000000000000e+00 -1.549019599857431873e-01
8.045051609704977069e-02 -1.863026620228202257e-01
1.609010321940995414e-01 -4.998386609559102856e-01
2.413515482911492982e-01 -1.446272883478105342e+00
3.218020643881990828e-01 -2.133737080276338016e+00
4.022525804852488118e-01 -2.078476357280805153e+00
4.827030965822985964e-01 -1.862316086873134324e+00
5.631536126793483810e-01 -1.838149555978737748e+00
6.436041287763981655e-01 -1.971355425012734752e+00
7.240546448734478391e-01 -2.183697999894361530e+00
8.045051609704976237e-01 -2.304026075309293820e+00
8.849556770675472972e-01 -2.388126503625449093e+00
9.654061931645971928e-01 -2.509429605932708807e+00
1.045856709261647088e+00 -2.613037681803148438e+00
1.126307225358696762e+00 -2.610276319267779588e+00
1.206757741455746435e+00 -2.589918338112288776e+00
1.287208257552796331e+00 -2.627502563480112574e+00
1.367658773649846005e+00 -2.648274525419321623e+00
1.448109289746895678e+00 -2.650301059331344966e+00
1.528559805843945352e+00 -2.680136816046749804e+00
1.609010321940995247e+00 -2.703938860287994572e+00
1.689460838038045143e+00 -2.722307388320092336e+00
1.769911354135094594e+00 -2.743283831934433259e+00
1.850361870232144490e+00 -2.769518617743266020e+00
1.930812386329194386e+00 -2.763399177196228518e+00
2.011262902426244281e+00 -2.702996678314602885e+00
2.091713418523294177e+00 -2.668068925769901512e+00
2.172163934620343628e+00 -2.655876227150033575e+00
2.252614450717393524e+00 -2.636329646580842123e+00
2.333064966814443419e+00 -2.622497238682683030e+00
2.413515482911492871e+00 -2.623213199208224378e+00
2.493965999008542767e+00 -2.653404606125202125e+00
2.574416515105592662e+00 -2.701566028258768348e+00
2.654867031202642558e+00 -2.723836935843357399e+00
2.735317547299692009e+00 -2.712328174919609758e+00
2.815768063396741905e+00 -2.668267535178336480e+00
2.896218579493791356e+00 -2.604456284408597444e+00
2.976669095590841252e+00 -2.556317362885215161e+00
3.057119611687890703e+00 -2.530149095436629025e+00
3.137570127784940599e+00 -2.548168970171050152e+00
3.218020643881990495e+00 -2.619796344503994678e+00
3.298471159979039946e+00 -2.697902091120711443e+00
3.378921676076090286e+00 -2.711447985533179672e+00
3.459372192173139737e+00 -2.666574308919761549e+00
3.539822708270189189e+00 -2.615651072284127299e+00
3.620273224367239528e+00 -2.592501007895683607e+00
3.700723740464288980e+00 -2.616254374604120247e+00
3.781174256561339320e+00 -2.674675115937159120e+00
3.861624772658388771e+00 -2.726375632132416182e+00
3.942075288755438223e+00 -2.713220553968324733e+00
4.022525804852488562e+00 -2.705036814103845888e+00
4.102976320949538014e+00 -2.702070152962963157e+00
4.183426837046588354e+00 -2.689203145869377920e+00
4.263877353143637805e+00 -2.673662146800448003e+00
4.344327869240687257e+00 -2.652633079551571349e+00
4.424778385337737596e+00 -2.622962358632221935e+00
4.505228901434787048e+00 -2.615010518271176476e+00
4.585679417531836499e+00 -2.632797994523756735e+00
4.666129933628886839e+00 -2.655251890850709451e+00
4.746580449725936290e+00 -2.671195844607748171e+00
4.827030965822985742e+00 -2.666713754276807791e+00
4.907481481920036082e+00 -2.673574496784997923e+00
4.987931998017085533e+00 -2.683351873227980189e+00
5.068382514114135873e+00 -2.687424140570202624e+00
5.148833030211185324e+00 -2.665422919627845388e+00
5.229283546308234776e+00 -2.637135464430282017e+00
5.309734062405285115e+00 -2.650918357055566332e+00
5.390184578502334567e+00 -2.671162724680513634e+00
5.470635094599384018e+00 -2.694046921405332196e+00
5.551085610696433470e+00 -2.718195462388156347e+00
5.631536126793483810e+00 -2.732380809521476550e+00
5.711986642890533261e+00 -2.730892918719971529e+00
5.792437158987582713e+00 -2.700942127684496707e+00
5.872887675084633052e+00 -2.653413391748315586e+00
5.953338191181682504e+00 -2.629680528667509787e+00
6.033788707278731955e+00 -2.635539430930645466e+00
6.114239223375781407e+00 -2.648245582994504410e+00
6.194689739472831747e+00 -2.649790963020645762e+00
6.275140255569881198e+00 -2.635372787873469402e+00
6.355590771666931538e+00 -2.621842898219106210e+00
6.436041287763980989e+00 -2.643864895233062562e+00
6.516491803861030441e+00 -2.654285716188771627e+00
6.596942319958079892e+00 -2.664186777821019980e+00
6.677392836055131120e+00 -2.684065724012859810e+00
6.757843352152180572e+00 -2.693753864704612866e+00
6.838293868249230023e+00 -2.691548702287597905e+00
6.918744384346279475e+00 -2.678729882690860986e+00
6.999194900443328926e+00 -2.678233380720071999e+00
7.079645416540378378e+00 -2.691449396673871952e+00
7.160095932637429605e+00 -2.705109053172680689e+00
7.240546448734479057e+00 -2.714220890902092620e+00
7.320996964831528508e+00 -2.710556485233845958e+00
7.401447480928577960e+00 -2.712421499274818348e+00
7.481897997025627411e+00 -2.713449063679751028e+00
7.562348513122678639e+00 -2.711975429739814203e+00
7.642799029219728091e+00 -2.713779817569445640e+00
7.723249545316777542e+00 -2.713274088698065079e+00
7.803700061413826994e+00 -2.719670158227831536e+00
7.884150577510876445e+00 -2.712527060188476113e+00
7.964601093607927673e+00 -2.697660773048759619e+00
8.045051609704977125e+00 -2.704440120193825070e+00
8.125502125802025688e+00 -2.727364531197231212e+00
8.205952641899076028e+00 -2.744800671196492292e+00
8.286403157996124591e+00 -2.756563079081473244e+00
8.366853674093176707e+00 -2.755654966279196927e+00
8.447304190190225270e+00 -2.743284788993872070e+00
8.527754706287275610e+00 -2.744402289461157274e+00
8.608205222384324173e+00 -2.763020145167845332e+00
8.688655738481374513e+00 -2.774786336958641186e+00
8.769106254578423076e+00 -2.782669321753003189e+00
8.849556770675475192e+00 -2.763789133721326063e+00
8.930007286772523756e+00 -2.754367497057772063e+00
9.010457802869574095e+00 -2.776925662177865739e+00
9.090908318966622659e+00 -2.800319806782459509e+00
9.171358835063672998e+00 -2.811735400447634703e+00
9.251809351160723338e+00 -2.810621376480624267e+00
9.332259867257773678e+00 -2.814439017346422212e+00
9.412710383354822241e+00 -2.815576768235546368e+00
9.493160899451872581e+00 -2.813597498306015243e+00
9.573611415548921144e+00 -2.790123413360309890e+00
9.654061931645971484e+00 -2.779321136814826509e+00
9.734512447743021823e+00 -2.790871641840461770e+00
9.814962963840072163e+00 -2.815814772515006226e+00
9.895413479937120727e+00 -2.829356217837907028e+00
9.975863996034171066e+00 -2.823144698284384191e+00
1.005631451213121963e+01 -2.795614296952319222e+00
1.013676502822827175e+01 -2.769097462605053295e+00
1.021721554432532031e+01 -2.756405640309633753e+00
1.029766606042237065e+01 -2.769678213961792146e+00
