0.000000000000000000e+00 -1.549019599857431873e-01
8.045051609704977069e-02 -2.109317174435398901e-01
1.609010321940995414e-01 -5.954988258940940860e-01
2.413515482911492982e-01 -1.698188606556646496e+00
3.218020643881990828e-01 -2.084293149924751898e+00
4.022525804852488118e-01 -2.049251196749597437e+00
4.827030965822985964e-01 -1.918896951097741388e+00
5.631536126793483810e-01 -1.943972329712174263e+00
6.436041287763981655e-01 -2.024727526526155952e+00
7.240546448734478391e-01 -2.171889323911513348e+00
8.045051609704976237e-01 -2.306834356991070312e+00
8.849556770675472972e-01 -2.367047958716816058e+00
9.654061931645971928e-01 -2.434754927073330855e+00
1.045856709261647088e+00 -2.538545681240357510e+00
1.126307225358696762e+00 -2.660891125058143736e+00
1.206757741455746435e+00 -2.741066589903195627e+00
1.287208257552796331e+00 -2.765367813936899122e+00
1.367658773649846005e+00 -2.760545110209661424e+00
1.448109289746895678e+00 -2.768988317871003080e+00
1.528559805843945352e+00 -2.762216755468307472e+00
1.609010321940995247e+00 -2.690641534328584328e+00
1.689460838038045143e+00 -2.663816461434187488e+00
1.769911354135094594e+00 -2.740645296031796629e+00
1.850361870232144490e+00 -2.802562353071859746e+00
1.930812386329194386e+00 -2.771706214963778780e+00
2.011262902426244281e+00 -2.701645486172172372e+00
2.091713418523294177e+00 -2.659434070199986344e+00
2.172163934620343628e+00 -2.635611683132773830e+00
2.252614450717393524e+00 -2.598743246060086332e+00
2.333064966814443419e+00 -2.629342241783500178e+00
2.413515482911492871e+00 -2.689936106493415302e+00
2.493965999008542767e+00 -2.708566933488780304e+00
2.574416515105592662e+00 -2.708967590954326710e+00
2.654867031202642558e+00 -2.715774935432033743e+00
2.735317547299692009e+00 -2.731059710397997886e+00
2.815768063396741905e+00 -2.757220258462024454e+00
2.896218579493791356e+00 -2.767448345450516101e+00
2.976669095590841252e+00 -2.711276002728780110e+00
3.057119611687890703e+00 -2.664653088657906732e+00
3.137570127784940599e+00 -2.630078987603074570e+00
3.218020643881990495e+00 -2.641953516003825886e+00
3.298471159979039946e+00 -2.652901482029197844e+00
3.378921676076090286e+00 -2.648421758841696505e+00
3.459372192173139737e+00 -2.624970132282345769e+00
3.539822708270189189e+00 -2.614453901386211587e+00
3.620273224367239528e+00 -2.604130174842446799e+00
3.700723740464288980e+00 -2.628333197927882559e+00
3.781174256561339320e+00 -2.672055359684992748e+00
3.861624772658388771e+00 -2.714364856340344634e+00
3.942075288755438223e+00 -2.706179131950358752e+00
4.022525804852488562e+00 -2.678204553862357340e+00
4.102976320949538014e+00 -2.641484424893077776e+00
4.183426837046588354e+00 -2.598227760329490543e+00
4.263877353143637805e+00 -2.581837320486410015e+00
4.344327869240687257e+00 -2.597379724368094056e+00
4.424778385337737596e+00 -2.604367898388324942e+00
4.505228901434787048e+00 -2.619525537164216544e+00
4.585679417531836499e+00 -2.637585078705401376e+00
4.666129933628886839e+00 -2.637599323213239977e+00
4.746580449725936290e+00 -2.644385168760450266e+00
4.827030965822985742e+00 -2.675984100202953631e+00
4.907481481920036082e+00 -2.710787156147841603e+00
4.987931998017085533e+00 -2.708215607446416762e+00
5.068382514114135873e+00 -2.675079717320393513e+00
5.148833030211185324e+00 -2.663854839352266524e+00
5.229283546308234776e+00 -2.663068470270821830e+00
5.309734062405285115e+00 -2.657702051067887705e+00
5.390184578502334567e+00 -2.695829170494635552e+00
5.470635094599384018e+00 -2.735261671531515670e+00
5.551085610696433470e+00 -2.731621082547278423e+00
5.631536126793483810e+00 -2.684170581866308858e+00
5.711986642890533261e+00 -2.637399068172132210e+00
5.792437158987582713e+00 -2.618845725753687681e+00
5.872887675084633052e+00 -2.616982087108226551e+00
5.953338191181682504e+00 -2.657999763439123697e+00
6.033788707278731955e+00 -2.700246746324058478e+00
6.114239223375781407e+00 -2.699900075055314375e+00
6.194689739472831747e+00 -2.685657495504901515e+00
6.275140255569881198e+00 -2.698295942295468652e+00
6.355590771666931538e+00 -2.737268548131206014e+00
6.436041287763980989e+00 -2.768904248882458230e+00
6.516491803861030441e+00 -2.769374402149600289e+00
6.596942319958079892e+00 -2.758250959684659165e+00
6.677392836055131120e+00 -2.732685438919121523e+00
6.757843352152180572e+00 -2.723688107467247210e+00
6.838293868249230023e+00 -2.723443186748548239e+00
6.918744384346279475e+00 -2.744931620545260298e+00
6.999194900443328926e+00 -2.760051550401533937e+00
7.079645416540378378e+00 -2.751718698403599728e+00
7.160095932637429605e+00 -2.716053701991022251e+00
7.240546448734479057e+00 -2.696055594243828235e+00
7.320996964831528508e+00 -2.735218043063816218e+00
7.401447480928577960e+00 -2.796513401419286282e+00
7.481897997025627411e+00 -2.835410401526526236e+00
7.562348513122678639e+00 -2.854720663056795615e+00
7.642799029219728091e+00 -2.851720198765185010e+00
7.723249545316777542e+00 -2.809296482288157648e+00
7.803700061413826994e+00 -2.763447095770994899e+00
7.884150577510876445e+00 -2.762758315582451107e+00
7.964601093607927673e+00 -2.777949476664019368e+00
8.045051609704977125e+00 -2.783480474125975324e+00
8.125502125802025688e+00 -2.780602299126555099e+00
8.205952641899076028e+00 -2.780938878610032639e+00
8.286403157996124591e+00 -2.809396413435718109e+00
8.366853674093176707e+00 -2.806839664243293786e+00
8.447304190190225270e+00 -2.811356863226335712e+00
8.527754706287275610e+00 -2.800578218754739890e+00
8.608205222384324173e+00 -2.780276044146844594e+00
8.688655738481374513e+00 -2.779919171759075436e+00
8.769106254578423076e+00 -2.813769199351801475e+00
8.849556770675475192e+00 -2.831385300831336327e+00
8.930007286772523756e+00 -2.817187717820897941e+00
9.010457802869574095e+00 -2.812624535286125216e+00
9.090908318966622659e+00 -2.801236083128761933e+00
9.171358835063672998e+00 -2.784534849586675964e+00
9.251809351160723338e+00 -2.796705923641375602e+00
9.332259867257773678e+00 -2.823560702094531916e+00
9.412710383354822241e+00 -2.824862392864186056e+00
9.493160899451872581e+00 -2.790921377068166898e+00
9.573611415548921144e+00 -2.785248109274513606e+00
9.654061931645971484e+00 -2.801725259361674158e+00
9.734512447743021823e+00 -2.829798952116761690e+00
9.814962963840072163e+00 -2.848951013011090883e+00
9.895413479937120727e+00 -2.858444334680668053e+00
9.975863996034171066e+00 -2.841168968959620234e+00
1.005631451213121963e+01 -2.816014813679512230e+00
1.013676502822827175e+01 -2.813186213971250016e+00
1.021721554432532031e+01 -2.826258351243732925e+00
1.029766606042237065e+01 -2.833572922813456518e+00
