0.000000000000000000e+00 -1.549019599857431873e-01
8.045051609704977069e-02 -1.994235267048402316e-01
1.609010321940995414e-01 -5.672224515374567622e-01
2.413515482911492982e-01 -1.791528726326951038e+00
3.218020643881990828e-01 -2.076655742756950307e+00
4.022525804852488118e-01 -1.943084204564706763e+00
4.827030965822985964e-01 -2.028236069445217726e+00
5.631536126793483810e-01 -2.237818049733757864e+00
6.436041287763981655e-01 -2.468186976482805495e+00
7.240546448734478391e-01 -2.682975013501363026e+00
8.045051609704976237e-01 -2.832025842649014358e+00
8.849556770675472972e-01 -2.877385107981137224e+00
9.654061931645971928e-01 -2.927418185282191665e+00
1.045856709261647088e+00 -3.003255854995339647e+00
1.126307225358696762e+00 -3.117610327428598005e+00
1.206757741455746435e+00 -3.122646910891412997e+00
1.287208257552796331e+00 -3.047472630646526959e+00
1.367658773649846005e+00 -3.041939386589175509e+00
1.448109289746895678e+00 -3.112350552472354259e+00
1.528559805843945352e+00 -3.143294118929861547e+00
1.609010321940995247e+00 -3.069828078020854889e+00
1.689460838038045143e+00 -2.980885842946619846e+00
1.769911354135094594e+00 -2.913364109613067576e+00
1.850361870232144490e+00 -2.850104560718136781e+00
1.930812386329194386e+00 -2.842826598338124011e+00
2.011262902426244281e+00 -2.846831240455006018e+00
2.091713418523294177e+00 -2.816915908650674538e+00
2.172163934620343628e+00 -2.823014632040476535e+00
2.252614450717393524e+00 -2.859657298836386197e+00
2.333064966814443419e+00 -2.919630647901270581e+00
2.413515482911492871e+00 -2.915182538978741356e+00
2.493965999008542767e+00 -2.844045402073176465e+00
2.574416515105592662e+00 -2.819343899355845284e+00
2.654867031202642558e+00 -2.867219583971364560e+00
2.735317547299692009e+00 -2.916505711384554722e+00
2.815768063396741905e+00 -2.943140117749929896e+00
2.896218579493791356e+00 -2.958385950948656973e+00
2.976669095590841252e+00 -2.928203975486197486e+00
3.057119611687890703e+00 -2.938571943475882353e+00
3.137570127784940599e+00 -2.958400547638379674e+00
3.218020643881990495e+00 -2.980709272095022122e+00
3.298471159979039946e+00 -2.989383733760797579e+00
3.378921676076090286e+00 -2.996749352953651524e+00
3.459372192173139737e+00 -2.980056701056212010e+00
3.539822708270189189e+00 -2.941727159059168706e+00
3.620273224367239528e+00 -2.911545785297807942e+00
3.700723740464288980e+00 -2.886503716946312359e+00
3.781174256561339320e+00 -2.861038994738081875e+00
3.861624772658388771e+00 -2.849544215471671915e+00
3.942075288755438223e+00 -2.885415070087845812e+00
4.022525804852488562e+00 -2.903862417505407301e+00
4.102976320949538014e+00 -2.895805666380971477e+00
4.183426837046588354e+00 -2.902291177081894435e+00
4.263877353143637805e+00 -2.931014959439366852e+00
4.344327869240687257e+00 -2.948290492476478786e+00
4.424778385337737596e+00 -2.965024419871407524e+00
4.505228901434787048e+00 -3.005504070446778808e+00
4.585679417531836499e+00 -3.008254495812729079e+00
4.666129933628886839e+00 -2.967470112814888150e+00
4.746580449725936290e+00 -2.942966063561380352e+00
4.827030965822985742e+00 -2.950379715714894768e+00
4.907481481920036082e+00 -2.959212715720681341e+00
4.987931998017085533e+00 -2.956887287807233644e+00
5.068382514114135873e+00 -2.949705692930915557e+00
5.148833030211185324e+00 -2.968351252280520214e+00
5.229283546308234776e+00 -2.972069733509774103e+00
5.309734062405285115e+00 -2.962207888482063733e+00
5.390184578502334567e+00 -2.940963317935492150e+00
5.470635094599384018e+00 -2.930974473292356386e+00
5.551085610696433470e+00 -2.929884162396401592e+00
5.631536126793483810e+00 -2.948748085464622637e+00
5.711986642890533261e+00 -2.978880393791293990e+00
5.792437158987582713e+00 -3.007098162559620480e+00
5.872887675084633052e+00 -2.962048609749829087e+00
5.953338191181682504e+00 -2.930355977949639534e+00
6.033788707278731955e+00 -2.932439624418393009e+00
6.114239223375781407e+00 -2.970057313766620410e+00
6.194689739472831747e+00 -2.986010436642215549e+00
6.275140255569881198e+00 -2.975569238523193327e+00
6.355590771666931538e+00 -2.980610208976373965e+00
6.436041287763980989e+00 -3.015462402861634139e+00
6.516491803861030441e+00 -3.035241454412211937e+00
6.596942319958079892e+00 -3.025073873437917893e+00
6.677392836055131120e+00 -3.043747314101152401e+00
6.757843352152180572e+00 -3.055805195640130201e+00
6.838293868249230023e+00 -3.040315929236858672e+00
6.918744384346279475e+00 -3.008335271437074354e+00
6.999194900443328926e+00 -2.995492856792854930e+00
7.079645416540378378e+00 -2.992361899481156051e+00
7.160095932637429605e+00 -3.000183900361916400e+00
7.240546448734479057e+00 -3.011586964947395195e+00
7.320996964831528508e+00 -3.020569960153477673e+00
7.401447480928577960e+00 -3.010506595944394181e+00
7.481897997025627411e+00 -2.995853712457865470e+00
7.562348513122678639e+00 -3.010764449043425106e+00
7.642799029219728091e+00 -3.014935057762402337e+00
7.723249545316777542e+00 -3.013044531240464341e+00
7.803700061413826994e+00 -2.987279937733570812e+00
7.884150577510876445e+00 -2.966030988258690826e+00
7.964601093607927673e+00 -2.972767615858857404e+00
8.045051609704977125e+00 -3.004490495616312096e+00
8.125502125802025688e+00 -3.027944189672345132e+00
8.205952641899076028e+00 -3.034518564193397161e+00
8.286403157996124591e+00 -3.064292903783615518e+00
8.366853674093176707e+00 -3.076324127488321292e+00
8.447304190190225270e+00 -3.055750461368250459e+00
8.527754706287275610e+00 -3.042729854483495977e+00
8.608205222384324173e+00 -3.042427779491627238e+00
8.688655738481374513e+00 -3.036764842144515697e+00
8.769106254578423076e+00 -3.049320717801382141e+00
8.849556770675475192e+00 -3.082526952157945921e+00
8.930007286772523756e+00 -3.089892719650206399e+00
9.010457802869574095e+00 -3.073381291655002290e+00
9.090908318966622659e+00 -3.045299154727213686e+00
9.171358835063672998e+00 -3.019364022888759713e+00
9.251809351160723338e+00 -3.017679635972720043e+00
9.332259867257773678e+00 -3.052277165309822848e+00
9.412710383354822241e+00 -3.091940789914013443e+00
9.493160899451872581e+00 -3.133294003896859525e+00
9.573611415548921144e+00 -3.135918617411044274e+00
9.654061931645971484e+00 -3.127902958023616176e+00
9.734512447743021823e+00 -3.109918689942219761e+00
9.814962963840072163e+00 -3.093192266810377511e+00
9.895413479937120727e+00 -3.082273949718792316e+00
9.975863996034171066e+00 -3.066734546036239184e+00
1.005631451213121963e+01 -3.062713717026580795e+00
1.013676502822827175e+01 -3.094669287911835820e+00
1.021721554432532031e+01 -3.124004409905274393e+00
1.029766606042237065e+01 -3.141058814774032371e+00
