0.000000000000000000e+00 -1.549019599857431873e-01
8.045051609704977069e-02 -2.046022614021293373e-01
1.609010321940995414e-01 -5.333810954351900779e-01
2.413515482911492982e-01 -1.677260293476015907e+00
3.218020643881990828e-01 -2.174606883135234980e+00
4.022525804852488118e-01 -2.080900352256398023e+00
4.827030965822985964e-01 -2.144508775235348885e+00
5.631536126793483810e-01 -2.324688531823974280e+00
6.436041287763981655e-01 -2.572545845271049458e+00
7.240546448734478391e-01 -2.732839993362375264e+00
8.045051609704976237e-01 -2.813639687837682146e+00
8.849556770675472972e-01 -2.882636798119528887e+00
9.654061931645971928e-01 -2.975545716079979641e+00
1.045856709261647088e+00 -3.050621281098564896e+00
1.126307225358696762e+00 -3.095949800853543099e+00
1.206757741455746435e+00 -3.125525572618792491e+00
1.287208257552796331e+00 -3.113717254935753687e+00
1.367658773649846005e+00 -3.131037242465354531e+00
1.448109289746895678e+00 -3.144584333661041953e+00
1.528559805843945352e+00 -3.102249970324188144e+00
1.609010321940995247e+00 -2.983923368420533961e+00
1.689460838038045143e+00 -2.898346289222965222e+00
1.769911354135094594e+00 -2.898557240447446670e+00
1.850361870232144490e+00 -2.991560592541081309e+00
1.930812386329194386e+00 -3.062625567467077925e+00
2.011262902426244281e+00 -3.080987464891919103e+00
2.091713418523294177e+00 -3.016897993696270319e+00
2.172163934620343628e+00 -2.925753359327947223e+00
2.252614450717393524e+00 -2.888648220624750795e+00
2.333064966814443419e+00 -2.893748016273941737e+00
2.413515482911492871e+00 -2.910428816905396676e+00
2.493965999008542767e+00 -2.880224014500993857e+00
2.574416515105592662e+00 -2.866521877280200581e+00
2.654867031202642558e+00 -2.894216211526189575e+00
2.735317547299692009e+00 -2.958770544355913579e+00
2.815768063396741905e+00 -2.973005136676908577e+00
2.896218579493791356e+00 -2.927902350354369077e+00
2.976669095590841252e+00 -2.910635370329184290e+00
3.057119611687890703e+00 -2.920375449153996161e+00
3.137570127784940599e+00 -2.928613076010698535e+00
3.218020643881990495e+00 -2.937581200333486464e+00
3.298471159979039946e+00 -2.957903902155279319e+00
3.378921676076090286e+00 -2.946328156705825485e+00
3.459372192173139737e+00 -2.910710468611460655e+00
3.539822708270189189e+00 -2.909894302780589026e+00
3.620273224367239528e+00 -2.922263255289042849e+00
3.700723740464288980e+00 -2.932389866672266532e+00
3.781174256561339320e+00 -2.938393943429853383e+00
3.861624772658388771e+00 -2.956974227935654120e+00
3.942075288755438223e+00 -2.975154940027993522e+00
4.022525804852488562e+00 -2.996687269172647827e+00
4.102976320949538014e+00 -3.013059112153061214e+00
4.183426837046588354e+00 -3.026662711749262158e+00
4.263877353143637805e+00 -2.996388872243922918e+00
4.344327869240687257e+00 -2.939160968000118501e+00
4.424778385337737596e+00 -2.932976194966452788e+00
4.505228901434787048e+00 -2.932668615036756243e+00
4.585679417531836499e+00 -2.949215460504481356e+00
4.666129933628886839e+00 -2.969354173684678244e+00
4.746580449725936290e+00 -2.977544622511531625e+00
4.827030965822985742e+00 -2.982332055983838437e+00
4.907481481920036082e+00 -2.982113965983542059e+00
4.987931998017085533e+00 -2.973897186908581958e+00
5.068382514114135873e+00 -2.960425050065998764e+00
5.148833030211185324e+00 -2.944733999376440092e+00
5.229283546308234776e+00 -2.938970926055928690e+00
5.309734062405285115e+00 -2.943050679290319938e+00
5.390184578502334567e+00 -2.941989823342660682e+00
5.470635094599384018e+00 -2.952986663250757093e+00
5.551085610696433470e+00 -2.968712753735453180e+00
5.631536126793483810e+00 -2.999897075601006158e+00
5.711986642890533261e+00 -3.045004192101095963e+00
5.792437158987582713e+00 -3.058549812718767580e+00
5.872887675084633052e+00 -3.012270731501491383e+00
5.953338191181682504e+00 -2.996197176911784332e+00
6.033788707278731955e+00 -3.006318768983897272e+00
6.114239223375781407e+00 -2.998682666262236562e+00
6.194689739472831747e+00 -2.973547759449581829e+00
6.275140255569881198e+00 -2.966252545781948857e+00
6.355590771666931538e+00 -2.983257512541481304e+00
6.436041287763980989e+00 -2.999151184268165071e+00
6.516491803861030441e+00 -3.024976104209183170e+00
6.596942319958079892e+00 -3.049412642221770664e+00
6.677392836055131120e+00 -3.066141397101571187e+00
6.757843352152180572e+00 -3.068237482350521628e+00
6.838293868249230023e+00 -3.020723793611761909e+00
6.918744384346279475e+00 -2.977319014317438395e+00
6.999194900443328926e+00 -2.982081229372812281e+00
7.079645416540378378e+00 -3.008677189858254497e+00
7.160095932637429605e+00 -3.024016743973829247e+00
7.240546448734479057e+00 -2.999265805566458720e+00
7.320996964831528508e+00 -2.997799678594360806e+00
7.401447480928577960e+00 -3.010289663371012114e+00
7.481897997025627411e+00 -3.026697779445805647e+00
7.562348513122678639e+00 -3.005182218166964514e+00
7.642799029219728091e+00 -2.983262111108860637e+00
7.723249545316777542e+00 -2.992090014827170741e+00
7.803700061413826994e+00 -3.005448164041976344e+00
7.884150577510876445e+00 -3.015789374398927247e+00
7.964601093607927673e+00 -3.027585196756675145e+00
8.045051609704977125e+00 -3.043897002078842284e+00
8.125502125802025688e+00 -3.062421244070690829e+00
8.205952641899076028e+00 -3.071624170871793513e+00
8.286403157996124591e+00 -3.075883566675655434e+00
8.366853674093176707e+00 -3.071871520789737353e+00
8.447304190190225270e+00 -3.070681357524334576e+00
8.527754706287275610e+00 -3.063864211046576358e+00
8.608205222384324173e+00 -3.069091957285336125e+00
8.688655738481374513e+00 -3.083815821609341867e+00
8.769106254578423076e+00 -3.085935644188972482e+00
8.849556770675475192e+00 -3.099619530679307289e+00
8.930007286772523756e+00 -3.101143019540020251e+00
9.010457802869574095e+00 -3.094125662319921588e+00
9.090908318966622659e+00 -3.078794171545101044e+00
9.171358835063672998e+00 -3.080084478326726050e+00
9.251809351160723338e+00 -3.074789336262391704e+00
9.332259867257773678e+00 -3.080731853157278710e+00
9.412710383354822241e+00 -3.088588184014862570e+00
9.493160899451872581e+00 -3.113622218641415085e+00
9.573611415548921144e+00 -3.114563674157599493e+00
9.654061931645971484e+00 -3.126105846843552527e+00
9.734512447743021823e+00 -3.141244647757924113e+00
9.814962963840072163e+00 -3.141554247189762172e+00
9.895413479937120727e+00 -3.150157381130944234e+00
9.975863996034171066e+00 -3.149847749745180003e+00
1.005631451213121963e+01 -3.142712031900086078e+00
1.013676502822827175e+01 -3.143305818238743665e+00
1.021721554432532031e+01 -3.144307956899553780e+00
1.029766606042237065e+01 -3.142413679623026201e+00
