0.000000000000000000e+00 -1.549019599857431873e-01
8.045051609704977069e-02 -1.957591456318611700e-01
1.609010321940995414e-01 -5.649549998701119957e-01
2.413515482911492982e-01 -1.519103060887577517e+00
3.218020643881990828e-01 -1.889777724934558867e+00
4.022525804852488118e-01 -1.869342759459606818e+00
4.827030965822985964e-01 -1.988722803477788625e+00
5.631536126793483810e-01 -2.219853286970192130e+00
6.436041287763981655e-01 -2.516536431064025692e+00
7.240546448734478391e-01 -2.683442777661613654e+00
8.045051609704976237e-01 -2.740794283188409342e+00
8.849556770675472972e-01 -2.812509477451233142e+00
9.654061931645971928e-01 -2.877123049110484221e+00
1.045856709261647088e+00 -2.981486974703118964e+00
1.126307225358696762e+00 -3.055927184165706301e+00
1.206757741455746435e+00 -3.072978030855519904e+00
1.287208257552796331e+00 -3.022208194478625654e+00
1.367658773649846005e+00 -2.971939130011937991e+00
1.448109289746895678e+00 -2.978545039312538112e+00
1.528559805843945352e+00 -3.001209781287695222e+00
1.609010321940995247e+00 -2.995672046237046970e+00
1.689460838038045143e+00 -2.959101022212955456e+00
1.769911354135094594e+00 -2.949080208726212238e+00
1.850361870232144490e+00 -2.938614740712799822e+00
1.930812386329194386e+00 -2.935748645777259025e+00
2.011262902426244281e+00 -2.930133935941475087e+00
2.091713418523294177e+00 -2.931964128990391494e+00
2.172163934620343628e+00 -2.974191287209291712e+00
2.252614450717393524e+00 -2.951383580950922347e+00
2.333064966814443419e+00 -2.968693242716199165e+00
2.413515482911492871e+00 -2.978394320770368697e+00
2.493965999008542767e+00 -2.945593211416953405e+00
2.574416515105592662e+00 -2.866092405213381600e+00
2.654867031202642558e+00 -2.836667269961093751e+00
2.735317547299692009e+00 -2.854295144105662985e+00
2.815768063396741905e+00 -2.890096183296776200e+00
2.896218579493791356e+00 -2.892373000291325269e+00
2.976669095590841252e+00 -2.899469184833084245e+00
3.057119611687890703e+00 -2.919387626601231744e+00
3.137570127784940599e+00 -2.933043634997626548e+00
3.218020643881990495e+00 -2.954394231451578534e+00
3.298471159979039946e+00 -2.980174750407961426e+00
3.378921676076090286e+00 -2.981869927199050085e+00
3.459372192173139737e+00 -2.973325285059718048e+00
3.539822708270189189e+00 -2.921520362797880743e+00
3.620273224367239528e+00 -2.882166872963912052e+00
3.700723740464288980e+00 -2.862435915203020098e+00
3.781174256561339320e+00 -2.882213983138481428e+00
3.861624772658388771e+00 -2.935977723368416559e+00
3.942075288755438223e+00 -2.954058948881349345e+00
4.022525804852488562e+00 -2.952415038210275178e+00
4.102976320949538014e+00 -2.937722039798118967e+00
4.183426837046588354e+00 -2.935855961171542905e+00
4.263877353143637805e+00 -2.981610713570074456e+00
4.344327869240687257e+00 -3.010478225001134156e+00
4.424778385337737596e+00 -3.004237030156004185e+00
4.505228901434787048e+00 -2.969675930466390668e+00
4.585679417531836499e+00 -2.925872182834720281e+00
4.666129933628886839e+00 -2.900473366308727652e+00
4.746580449725936290e+00 -2.910175351835151858e+00
4.827030965822985742e+00 -2.914856338474038022e+00
4.907481481920036082e+00 -2.928356050177328029e+00
4.987931998017085533e+00 -2.956174871985728370e+00
5.068382514114135873e+00 -2.991494225502743465e+00
5.148833030211185324e+00 -2.995495714212069061e+00
5.229283546308234776e+00 -2.979571205025935754e+00
5.309734062405285115e+00 -2.966186555285446946e+00
5.390184578502334567e+00 -2.998762175045637246e+00
5.470635094599384018e+00 -2.996955700659631461e+00
5.551085610696433470e+00 -2.978381410294145049e+00
5.631536126793483810e+00 -2.989037601997636351e+00
5.711986642890533261e+00 -2.982190290497463536e+00
5.792437158987582713e+00 -2.975916087443583713e+00
5.872887675084633052e+00 -2.961052191535819667e+00
5.953338191181682504e+00 -2.957377268969906936e+00
6.033788707278731955e+00 -2.972404722091749107e+00
6.114239223375781407e+00 -3.000364352971624182e+00
6.194689739472831747e+00 -3.014761867629669023e+00
6.275140255569881198e+00 -3.011354928468124914e+00
6.355590771666931538e+00 -2.997959139809736939e+00
6.436041287763980989e+00 -2.972017960945060100e+00
6.516491803861030441e+00 -2.960037416807112187e+00
6.596942319958079892e+00 -2.968303899416788738e+00
6.677392836055131120e+00 -2.979103892862997149e+00
6.757843352152180572e+00 -2.990678322880065299e+00
6.838293868249230023e+00 -3.009210872131595327e+00
6.918744384346279475e+00 -2.993618598936386377e+00
6.999194900443328926e+00 -2.972528704501757435e+00
7.079645416540378378e+00 -2.973447499656275639e+00
7.160095932637429605e+00 -2.983473126728344749e+00
7.240546448734479057e+00 -2.979824545493877874e+00
7.320996964831528508e+00 -2.987855483642821497e+00
7.401447480928577960e+00 -3.015348907757383401e+00
7.481897997025627411e+00 -3.018050207530815765e+00
7.562348513122678639e+00 -3.020143225018456778e+00
7.642799029219728091e+00 -3.013711426106564506e+00
7.723249545316777542e+00 -3.014025741506617617e+00
7.803700061413826994e+00 -3.004763256219647793e+00
7.884150577510876445e+00 -3.031633281848704620e+00
7.964601093607927673e+00 -3.079038828344847989e+00
8.045051609704977125e+00 -3.068192745396850718e+00
8.125502125802025688e+00 -3.041635761336809463e+00
8.205952641899076028e+00 -3.052758242180078518e+00
8.286403157996124591e+00 -3.090052969789794712e+00
8.366853674093176707e+00 -3.099244336478449213e+00
8.447304190190225270e+00 -3.085093446007121543e+00
8.527754706287275610e+00 -3.080486544910525204e+00
8.608205222384324173e+00 -3.068722344264180002e+00
8.688655738481374513e+00 -3.065934002185616514e+00
8.769106254578423076e+00 -3.057017567040903661e+00
8.849556770675475192e+00 -3.053211247655550409e+00
8.930007286772523756e+00 -3.051901283709222756e+00
9.010457802869574095e+00 -3.061688995066958352e+00
9.090908318966622659e+00 -3.073755205002608903e+00
9.171358835063672998e+00 -3.066212325532160943e+00
9.251809351160723338e+00 -3.068945347112555400e+00
9.332259867257773678e+00 -3.067588354146081997e+00
9.412710383354822241e+00 -3.044831577165323377e+00
9.493160899451872581e+00 -3.041629833234912983e+00
9.573611415548921144e+00 -3.074805195140876801e+00
9.654061931645971484e+00 -3.077127443404406471e+00
9.734512447743021823e+00 -3.066217923067424245e+00
9.814962963840072163e+00 -3.068440331204290938e+00
9.895413479937120727e+00 -3.068197724572398144e+00
9.975863996034171066e+00 -3.061260203132369018e+00
1.005631451213121963e+01 -3.102413279142330005e+00
1.013676502822827175e+01 -3.143843619539143486e+00
1.021721554432532031e+01 -3.134193166370564221e+00
1.029766606042237065e+01 -3.106509327354094463e+00
