0.000000000000000000e+00 -1.549019599857431873e-01
8.045051609704977069e-02 -3.944888286254096266e-01
1.609010321940995414e-01 -1.258581963762813949e+00
2.413515482911492982e-01 -3.886900911833115480e+00
3.218020643881990828e-01 -4.525454832526932591e+00
4.022525804852488118e-01 -4.417452021350869451e+00
4.827030965822985964e-01 -4.328694497679152597e+00
5.631536126793483810e-01 -4.205075456297503678e+00
6.436041287763981655e-01 -4.552693998331683645e+00
7.240546448734478391e-01 -5.229229418663718931e+00
8.045051609704976237e-01 -5.767281915571552453e+00
8.849556770675472972e-01 -5.906401496447198696e+00
9.654061931645971928e-01 -6.021065323034235917e+00
1.045856709261647088e+00 -6.268042554228353325e+00
1.126307225358696762e+00 -6.547143048168189594e+00
1.206757741455746435e+00 -6.630450078898547872e+00
1.287208257552796331e+00 -6.499388273049388154e+00
1.367658773649846005e+00 -6.331441673112819579e+00
1.448109289746895678e+00 -6.166564804655238596e+00
1.528559805843945352e+00 -6.035087963207257822e+00
1.609010321940995247e+00 -5.899880981548150771e+00
1.689460838038045143e+00 -5.948771996672825857e+00
1.769911354135094594e+00 -5.982285364357267099e+00
1.850361870232144490e+00 -5.905970919270651542e+00
1.930812386329194386e+00 -5.747414672019596438e+00
2.011262902426244281e+00 -5.682824003174158811e+00
2.091713418523294177e+00 -5.639766442005989866e+00
2.172163934620343628e+00 -5.734208953670868247e+00
2.252614450717393524e+00 -5.790116962205210882e+00
2.333064966814443419e+00 -5.721225446577632212e+00
2.413515482911492871e+00 -5.613603749275394961e+00
2.493965999008542767e+00 -5.600712983270860867e+00
2.574416515105592662e+00 -5.587150581696007201e+00
2.654867031202642558e+00 -5.659358302688722198e+00
2.735317547299692009e+00 -5.791286381489656243e+00
2.815768063396741905e+00 -5.842039424732257125e+00
2.896218579493791356e+00 -5.792587189951208693e+00
2.976669095590841252e+00 -5.790710869166617591e+00
3.057119611687890703e+00 -5.818873821837488691e+00
3.137570127784940599e+00 -5.855273735585988959e+00
3.218020643881990495e+00 -5.868667332965730843e+00
3.298471159979039946e+00 -5.868768242291830362e+00
3.378921676076090286e+00 -5.790872593424018611e+00
3.459372192173139737e+00 -5.730481909442043609e+00
3.539822708270189189e+00 -5.767686613076490332e+00
3.620273224367239528e+00 -5.801342525365503988e+00
3.700723740464288980e+00 -5.735897835257102173e+00
3.781174256561339320e+00 -5.725873901294519897e+00
3.861624772658388771e+00 -5.805906250106700028e+00
3.942075288755438223e+00 -5.867615700531593426e+00
4.022525804852488562e+00 -5.849133335390634514e+00
4.102976320949538014e+00 -5.935860278939660617e+00
4.183426837046588354e+00 -6.062598835453258950e+00
4.263877353143637805e+00 -6.140168710802483609e+00
4.344327869240687257e+00 -6.099226094877282733e+00
4.424778385337737596e+00 -5.977493448486233873e+00
4.505228901434787048e+00 -5.867634911857728675e+00
4.585679417531836499e+00 -5.806714731707203647e+00
4.666129933628886839e+00 -5.834924820871789208e+00
4.746580449725936290e+00 -5.903477376903210505e+00
4.827030965822985742e+00 -5.950335731051377586e+00
4.907481481920036082e+00 -5.990744624509628302e+00
4.987931998017085533e+00 -5.998130547807326352e+00
5.068382514114135873e+00 -6.020887176524056805e+00
5.148833030211185324e+00 -6.007307892611576605e+00
5.229283546308234776e+00 -6.016804763708428538e+00
5.309734062405285115e+00 -5.907042334856560828e+00
5.390184578502334567e+00 -5.853594439123726900e+00
5.470635094599384018e+00 -5.815321126320345257e+00
5.551085610696433470e+00 -5.855607706419210245e+00
5.631536126793483810e+00 -5.883040155024636952e+00
5.711986642890533261e+00 -5.899815177387797149e+00
5.792437158987582713e+00 -5.911069840483184734e+00
5.872887675084633052e+00 -5.890136896233939545e+00
5.953338191181682504e+00 -5.902058636844170536e+00
6.033788707278731955e+00 -5.922642392720286253e+00
6.114239223375781407e+00 -5.972292933787056057e+00
6.194689739472831747e+00 -6.007896227754539353e+00
6.275140255569881198e+00 -6.027451703116425641e+00
6.355590771666931538e+00 -5.996579576550049140e+00
6.436041287763980989e+00 -5.968047354269408800e+00
6.516491803861030441e+00 -5.950253277961048859e+00
6.596942319958079892e+00 -5.910548270316786201e+00
6.677392836055131120e+00 -5.903699747465787517e+00
6.757843352152180572e+00 -5.978975372061002602e+00
6.838293868249230023e+00 -6.039452635831586313e+00
6.918744384346279475e+00 -6.078673052816204958e+00
6.999194900443328926e+00 -6.098160124819944627e+00
7.079645416540378378e+00 -6.091831171773470111e+00
7.160095932637429605e+00 -6.087843402948998950e+00
7.240546448734479057e+00 -6.094711222649952020e+00
7.320996964831528508e+00 -6.094016490215950377e+00
7.401447480928577960e+00 -6.099814334085026601e+00
7.481897997025627411e+00 -6.108314666095607137e+00
7.562348513122678639e+00 -6.104329351649476543e+00
7.642799029219728091e+00 -6.136635851412340692e+00
7.723249545316777542e+00 -6.134426535285389726e+00
7.803700061413826994e+00 -6.102594035225784808e+00
7.884150577510876445e+00 -6.075205463153389829e+00
7.964601093607927673e+00 -6.034592524495161925e+00
8.045051609704977125e+00 -6.016227128651604694e+00
8.125502125802025688e+00 -6.004096600670856709e+00
8.205952641899076028e+00 -6.001287280840516658e+00
8.286403157996124591e+00 -6.067993083170772017e+00
8.366853674093176707e+00 -6.163584676373835336e+00
8.447304190190225270e+00 -6.226710217684651383e+00
8.527754706287275610e+00 -6.224666384760600302e+00
8.608205222384324173e+00 -6.181157805674358130e+00
8.688655738481374513e+00 -6.149971921830312382e+00
8.769106254578423076e+00 -6.155452548883422637e+00
8.849556770675475192e+00 -6.140516955632696394e+00
8.930007286772523756e+00 -6.120157778670042958e+00
9.010457802869574095e+00 -6.122438605797972500e+00
9.090908318966622659e+00 -6.092747409073894005e+00
9.171358835063672998e+00 -6.056567731541552035e+00
9.251809351160723338e+00 -6.098988749360882089e+00
9.332259867257773678e+00 -6.183267001839417354e+00
9.412710383354822241e+00 -6.194165614944595610e+00
9.493160899451872581e+00 -6.163365835158192141e+00
9.573611415548921144e+00 -6.147414218229855010e+00
9.654061931645971484e+00 -6.183481060826936826e+00
9.734512447743021823e+00 -6.234330827807767150e+00
9.814962963840072163e+00 -6.227224663575088748e+00
9.895413479937120727e+00 -6.239663016514114702e+00
9.975863996034171066e+00 -6.284343698793217747e+00
1.005631451213121963e+01 -6.286382289527510991e+00
1.013676502822827175e+01 -6.192275348480518637e+00
1.021721554432532031e+01 -6.180550950111482145e+00
1.029766606042237065e+01 -6.221613259537476459e+00
