0.000000000000000000e+00 -1.549019599857431873e-01
8.045051609704977069e-02 -2.052036375313412153e-01
1.609010321940995414e-01 -6.275483719794832105e-01
2.413515482911492982e-01 -1.774592139914319411e+00
3.218020643881990828e-01 -1.828875915161920718e+00
4.022525804852488118e-01 -1.728914909734337924e+00
4.827030965822985964e-01 -1.898800379165658692e+00
5.631536126793483810e-01 -2.224997105163532662e+00
6.436041287763981655e-01 -2.369900817225815359e+00
7.240546448734478391e-01 -2.545520830785728883e+00
8.045051609704976237e-01 -2.833966623897054227e+00
8.849556770675472972e-01 -3.012944420070553520e+00
9.654061931645971928e-01 -3.085410723331476479e+00
1.045856709261647088e+00 -3.106823811163657911e+00
1.126307225358696762e+00 -3.096273596460487720e+00
1.206757741455746435e+00 -3.127894840398690146e+00
1.287208257552796331e+00 -3.150316943981438467e+00
1.367658773649846005e+00 -3.119837635860173819e+00
1.448109289746895678e+00 -3.078721863536727277e+00
1.528559805843945352e+00 -3.052772983867622969e+00
1.609010321940995247e+00 -3.053095496907523909e+00
1.689460838038045143e+00 -3.078099420048227230e+00
1.769911354135094594e+00 -3.099725690366639252e+00
1.850361870232144490e+00 -3.071049615971323199e+00
1.930812386329194386e+00 -2.994131412472053277e+00
2.011262902426244281e+00 -2.934238553298085694e+00
2.091713418523294177e+00 -2.936538766916370058e+00
2.172163934620343628e+00 -2.974344274788923048e+00
2.252614450717393524e+00 -2.948253143007526944e+00
2.333064966814443419e+00 -2.893475746392892400e+00
2.413515482911492871e+00 -2.910124391979509451e+00
2.493965999008542767e+00 -2.971441469557521753e+00
2.574416515105592662e+00 -2.945804296765079044e+00
2.654867031202642558e+00 -2.919515084943983485e+00
2.735317547299692009e+00 -2.915442455146726175e+00
2.815768063396741905e+00 -2.924004539869712982e+00
2.896218579493791356e+00 -2.939906255503906163e+00
2.976669095590841252e+00 -2.937736735711286240e+00
3.057119611687890703e+00 -2.898966343747144236e+00
3.137570127784940599e+00 -2.893596081174841572e+00
3.218020643881990495e+00 -2.924533489101814876e+00
3.298471159979039946e+00 -2.933478854201380326e+00
3.378921676076090286e+00 -2.874361876722492770e+00
3.459372192173139737e+00 -2.792710923328784567e+00
3.539822708270189189e+00 -2.795676569432836267e+00
3.620273224367239528e+00 -2.860635119627861656e+00
3.700723740464288980e+00 -2.900370289351407393e+00
3.781174256561339320e+00 -2.907352507271843578e+00
3.861624772658388771e+00 -2.909351765973746673e+00
3.942075288755438223e+00 -2.906825500197047774e+00
4.022525804852488562e+00 -2.937348547175644420e+00
4.102976320949538014e+00 -2.975630788342491950e+00
4.183426837046588354e+00 -2.992969977259416492e+00
4.263877353143637805e+00 -3.004534203779462675e+00
4.344327869240687257e+00 -3.020590931039324190e+00
4.424778385337737596e+00 -2.978189747480369132e+00
4.505228901434787048e+00 -2.917947680161689927e+00
4.585679417531836499e+00 -2.908716548925821765e+00
4.666129933628886839e+00 -2.936061588316533744e+00
4.746580449725936290e+00 -2.945325888522004831e+00
4.827030965822985742e+00 -2.914336167550386048e+00
4.907481481920036082e+00 -2.931962265780404309e+00
4.987931998017085533e+00 -2.943179009189650142e+00
5.068382514114135873e+00 -2.939508764810829344e+00
5.148833030211185324e+00 -2.907487074691021967e+00
5.229283546308234776e+00 -2.884754743298567181e+00
5.309734062405285115e+00 -2.891506961820299093e+00
5.390184578502334567e+00 -2.928606133707663428e+00
5.470635094599384018e+00 -2.954822194950806225e+00
5.551085610696433470e+00 -2.954360019057415965e+00
5.631536126793483810e+00 -2.943304673106366565e+00
5.711986642890533261e+00 -2.917776826320822803e+00
5.792437158987582713e+00 -2.918050607605913171e+00
5.872887675084633052e+00 -2.954613289764030704e+00
5.953338191181682504e+00 -2.962848684952449130e+00
6.033788707278731955e+00 -2.928027841784202501e+00
6.114239223375781407e+00 -2.940118093894616980e+00
6.194689739472831747e+00 -2.973249836055080308e+00
6.275140255569881198e+00 -2.972233911602585987e+00
6.355590771666931538e+00 -2.979092619812136800e+00
6.436041287763980989e+00 -3.003546344157471903e+00
6.516491803861030441e+00 -2.997030754311254874e+00
6.596942319958079892e+00 -2.970547086425484817e+00
6.677392836055131120e+00 -2.987941678163584136e+00
6.757843352152180572e+00 -2.999162109973076085e+00
6.838293868249230023e+00 -3.009102300839666455e+00
6.918744384346279475e+00 -3.008665699032594620e+00
6.999194900443328926e+00 -3.012826528227745104e+00
7.079645416540378378e+00 -3.009846428188670320e+00
7.160095932637429605e+00 -3.007200651768846100e+00
7.240546448734479057e+00 -3.025576596710748856e+00
7.320996964831528508e+00 -3.054872074371020041e+00
7.401447480928577960e+00 -3.041729600557006918e+00
7.481897997025627411e+00 -3.008035883452670145e+00
7.562348513122678639e+00 -2.996440210751654121e+00
7.642799029219728091e+00 -2.991188897481617204e+00
7.723249545316777542e+00 -3.008872548064080110e+00
7.803700061413826994e+00 -3.043983359701709634e+00
7.884150577510876445e+00 -3.068652002920350785e+00
7.964601093607927673e+00 -3.076863991614056548e+00
8.045051609704977125e+00 -3.091888052237961482e+00
8.125502125802025688e+00 -3.105590976694253325e+00
8.205952641899076028e+00 -3.101867431000831843e+00
8.286403157996124591e+00 -3.074554352508857669e+00
8.366853674093176707e+00 -3.057360417119181051e+00
8.447304190190225270e+00 -3.055310736506468672e+00
8.527754706287275610e+00 -3.054639147709410807e+00
8.608205222384324173e+00 -3.033462266707595223e+00
8.688655738481374513e+00 -3.036167944221135340e+00
8.769106254578423076e+00 -3.053329040755602186e+00
8.849556770675475192e+00 -3.055329508067981426e+00
8.930007286772523756e+00 -3.065838233298323168e+00
9.010457802869574095e+00 -3.098829470508559059e+00
9.090908318966622659e+00 -3.133926845989302379e+00
9.171358835063672998e+00 -3.158013566156900431e+00
9.251809351160723338e+00 -3.153415237475006627e+00
9.332259867257773678e+00 -3.137129140921854464e+00
9.412710383354822241e+00 -3.123315388218411481e+00
9.493160899451872581e+00 -3.127380059019299274e+00
9.573611415548921144e+00 -3.142785629720047602e+00
9.654061931645971484e+00 -3.141070339957222846e+00
9.734512447743021823e+00 -3.110949589083142008e+00
9.814962963840072163e+00 -3.111995432258892080e+00
9.895413479937120727e+00 -3.107567413339815676e+00
9.975863996034171066e+00 -3.088868525885847927e+00
1.005631451213121963e+01 -3.090335233993164898e+00
1.013676502822827175e+01 -3.106036554819502804e+00
1.021721554432532031e+01 -3.115922223020650250e+00
1.029766606042237065e+01 -3.132973505349705867e+00
