0.000000000000000000e+00 -1.549019599857431873e-01
8.045051609704977069e-02 -2.049751937575612359e-01
1.609010321940995414e-01 -5.381905431702257436e-01
2.413515482911492982e-01 -1.882470837561778687e+00
3.218020643881990828e-01 -2.765312942515376182e+00
4.022525804852488118e-01 -2.928286500768204181e+00
4.827030965822985964e-01 -3.317567395450552237e+00
5.631536126793483810e-01 -3.571207041032231189e+00
6.436041287763981655e-01 -3.823702560196260869e+00
7.240546448734478391e-01 -3.917889829194823648e+00
8.045051609704976237e-01 -3.945269636307267902e+00
8.849556770675472972e-01 -3.999376788647168723e+00
9.654061931645971928e-01 -4.049907112269116816e+00
1.045856709261647088e+00 -4.032403382178250340e+00
1.126307225358696762e+00 -3.989712215131391293e+00
1.206757741455746435e+00 -3.951088468884187854e+00
1.287208257552796331e+00 -3.910358026592788860e+00
1.367658773649846005e+00 -3.871635703182614741e+00
1.448109289746895678e+00 -3.869433496970971387e+00
1.528559805843945352e+00 -3.857491086970608496e+00
1.609010321940995247e+00 -3.776703692991475236e+00
1.689460838038045143e+00 -3.695198167060785632e+00
1.769911354135094594e+00 -3.612880282591445003e+00
1.850361870232144490e+00 -3.517231719579783533e+00
1.930812386329194386e+00 -3.377116000187436295e+00
2.011262902426244281e+00 -3.280132834528989960e+00
2.091713418523294177e+00 -3.252702146826788709e+00
2.172163934620343628e+00 -3.265453052345778762e+00
2.252614450717393524e+00 -3.227874598200016987e+00
2.333064966814443419e+00 -3.171804054471384138e+00
2.413515482911492871e+00 -3.203455915530390108e+00
2.493965999008542767e+00 -3.284897016345607046e+00
2.574416515105592662e+00 -3.329110400746887688e+00
2.654867031202642558e+00 -3.358788711126952542e+00
2.735317547299692009e+00 -3.407784114622376404e+00
2.815768063396741905e+00 -3.407332151346657678e+00
2.896218579493791356e+00 -3.338953193950121356e+00
2.976669095590841252e+00 -3.330328188051688176e+00
3.057119611687890703e+00 -3.371503097111798297e+00
3.137570127784940599e+00 -3.405212426690228167e+00
3.218020643881990495e+00 -3.388685548920272961e+00
3.298471159979039946e+00 -3.353908547364257142e+00
3.378921676076090286e+00 -3.316392481777954870e+00
3.459372192173139737e+00 -3.313245483012708270e+00
3.539822708270189189e+00 -3.303315137158663983e+00
3.620273224367239528e+00 -3.278916351246975669e+00
3.700723740464288980e+00 -3.283931102764953369e+00
3.781174256561339320e+00 -3.299978452711596066e+00
3.861624772658388771e+00 -3.330421161520661144e+00
3.942075288755438223e+00 -3.328188133165080220e+00
4.022525804852488562e+00 -3.341508961669719113e+00
4.102976320949538014e+00 -3.395520933053848278e+00
4.183426837046588354e+00 -3.425745130746412404e+00
4.263877353143637805e+00 -3.416993160938814000e+00
4.344327869240687257e+00 -3.390411851442021174e+00
4.424778385337737596e+00 -3.373530042684581343e+00
4.505228901434787048e+00 -3.371287902863155939e+00
4.585679417531836499e+00 -3.380458542340858408e+00
4.666129933628886839e+00 -3.385175642585418920e+00
4.746580449725936290e+00 -3.369980579148974087e+00
4.827030965822985742e+00 -3.363842225195487590e+00
4.907481481920036082e+00 -3.358911443367222915e+00
4.987931998017085533e+00 -3.334349563949510653e+00
5.068382514114135873e+00 -3.324685393732980554e+00
5.148833030211185324e+00 -3.340560044490633818e+00
5.229283546308234776e+00 -3.344312875092082304e+00
5.309734062405285115e+00 -3.346216303997742614e+00
5.390184578502334567e+00 -3.354930306694907216e+00
5.470635094599384018e+00 -3.366345510763580684e+00
5.551085610696433470e+00 -3.376550007030606704e+00
5.631536126793483810e+00 -3.381998344849022953e+00
5.711986642890533261e+00 -3.396195590339547987e+00
5.792437158987582713e+00 -3.408439986210560324e+00
5.872887675084633052e+00 -3.418205878344106718e+00
5.953338191181682504e+00 -3.406945450746091009e+00
6.033788707278731955e+00 -3.374717061840569521e+00
6.114239223375781407e+00 -3.346286472557900016e+00
6.194689739472831747e+00 -3.350809094110263953e+00
6.275140255569881198e+00 -3.370289712652243530e+00
6.355590771666931538e+00 -3.385808200618715791e+00
6.436041287763980989e+00 -3.404036624898837626e+00
6.516491803861030441e+00 -3.406556106668657158e+00
6.596942319958079892e+00 -3.383038785795356773e+00
6.677392836055131120e+00 -3.355669401549957964e+00
6.757843352152180572e+00 -3.370478869509565101e+00
6.838293868249230023e+00 -3.401580090078089924e+00
6.918744384346279475e+00 -3.418715551246497952e+00
6.999194900443328926e+00 -3.438215320043950474e+00
7.079645416540378378e+00 -3.447736435531400190e+00
7.160095932637429605e+00 -3.440119014806931830e+00
7.240546448734479057e+00 -3.430286884104414291e+00
7.320996964831528508e+00 -3.405918752010788531e+00
7.401447480928577960e+00 -3.398703368816625048e+00
7.481897997025627411e+00 -3.410849355077701262e+00
7.562348513122678639e+00 -3.416912647961550586e+00
7.642799029219728091e+00 -3.396495802495041794e+00
7.723249545316777542e+00 -3.394464950947575499e+00
7.803700061413826994e+00 -3.405491558679027975e+00
7.884150577510876445e+00 -3.425794221662036954e+00
7.964601093607927673e+00 -3.455841128882012114e+00
8.045051609704977125e+00 -3.485249496903846111e+00
8.125502125802025688e+00 -3.483358835483784777e+00
8.205952641899076028e+00 -3.453732250624141908e+00
8.286403157996124591e+00 -3.442496067842210739e+00
8.366853674093176707e+00 -3.469859594007056902e+00
8.447304190190225270e+00 -3.498282196478637474e+00
8.527754706287275610e+00 -3.484074520606909253e+00
8.608205222384324173e+00 -3.469744844528789507e+00
8.688655738481374513e+00 -3.467769040462903352e+00
8.769106254578423076e+00 -3.481942954876781737e+00
8.849556770675475192e+00 -3.490459966944444936e+00
8.930007286772523756e+00 -3.484850724134091582e+00
9.010457802869574095e+00 -3.470575525514937532e+00
9.090908318966622659e+00 -3.462798455994190672e+00
9.171358835063672998e+00 -3.471175393201381354e+00
9.251809351160723338e+00 -3.487302815125782995e+00
9.332259867257773678e+00 -3.507002431814539190e+00
9.412710383354822241e+00 -3.506831052750759792e+00
9.493160899451872581e+00 -3.508684900326286549e+00
9.573611415548921144e+00 -3.512065920222394499e+00
9.654061931645971484e+00 -3.495962706385181917e+00
9.734512447743021823e+00 -3.489683598928591035e+00
9.814962963840072163e+00 -3.507936140678618475e+00
9.895413479937120727e+00 -3.541041850536200908e+00
9.975863996034171066e+00 -3.561394257908926164e+00
1.005631451213121963e+01 -3.545305149209033058e+00
1.013676502822827175e+01 -3.527468858924901252e+00
1.021721554432532031e+01 -3.548458249566579958e+00
1.029766606042237065e+01 -3.564429637619751290e+00
