0.000000000000000000e+00 -1.549019599857431873e-01
8.045051609704977069e-02 -2.117754014345562263e-01
1.609010321940995414e-01 -6.452046368026900236e-01
2.413515482911492982e-01 -2.366278247577889182e+00
3.218020643881990828e-01 -2.699132617907939125e+00
4.022525804852488118e-01 -3.147633452373047813e+00
4.827030965822985964e-01 -3.573409354456669629e+00
5.631536126793483810e-01 -3.738511585345261512e+00
6.436041287763981655e-01 -3.817129083807030643e+00
7.240546448734478391e-01 -3.912447306190383500e+00
8.045051609704976237e-01 -3.980102916898585530e+00
8.849556770675472972e-01 -3.987990265612898710e+00
9.654061931645971928e-01 -3.942276192621901654e+00
1.045856709261647088e+00 -3.957109996428504584e+00
1.126307225358696762e+00 -3.970199460562372717e+00
1.206757741455746435e+00 -3.924427992695729284e+00
1.287208257552796331e+00 -3.843789737027499154e+00
1.367658773649846005e+00 -3.794782323987948569e+00
1.448109289746895678e+00 -3.791586723910415735e+00
1.528559805843945352e+00 -3.768000065311500002e+00
1.609010321940995247e+00 -3.707913111231846415e+00
1.689460838038045143e+00 -3.637914609631450524e+00
1.769911354135094594e+00 -3.553811604159252013e+00
1.850361870232144490e+00 -3.444487159139750787e+00
1.930812386329194386e+00 -3.366044097088641163e+00
2.011262902426244281e+00 -3.311812002974086511e+00
2.091713418523294177e+00 -3.277040112615066558e+00
2.172163934620343628e+00 -3.234598469104050356e+00
2.252614450717393524e+00 -3.176997317192664205e+00
2.333064966814443419e+00 -3.164579876275270820e+00
2.413515482911492871e+00 -3.176521598000079827e+00
2.493965999008542767e+00 -3.209962693156377167e+00
2.574416515105592662e+00 -3.263748690389694840e+00
2.654867031202642558e+00 -3.298708876030348680e+00
2.735317547299692009e+00 -3.329711097673374365e+00
2.815768063396741905e+00 -3.361598141415124363e+00
2.896218579493791356e+00 -3.375333779628151287e+00
2.976669095590841252e+00 -3.367126433705540212e+00
3.057119611687890703e+00 -3.322735502592927936e+00
3.137570127784940599e+00 -3.301619597232260173e+00
3.218020643881990495e+00 -3.274487996785112820e+00
3.298471159979039946e+00 -3.279536632381781391e+00
3.378921676076090286e+00 -3.283376792199651284e+00
3.459372192173139737e+00 -3.306818888584409422e+00
3.539822708270189189e+00 -3.324950441250607902e+00
3.620273224367239528e+00 -3.303227614965042580e+00
3.700723740464288980e+00 -3.269254462520413185e+00
3.781174256561339320e+00 -3.263698252134611621e+00
3.861624772658388771e+00 -3.285051354000260382e+00
3.942075288755438223e+00 -3.303514130003562865e+00
4.022525804852488562e+00 -3.322314848150503597e+00
4.102976320949538014e+00 -3.355340152370640983e+00
4.183426837046588354e+00 -3.360650613156813460e+00
4.263877353143637805e+00 -3.353408919436653868e+00
4.344327869240687257e+00 -3.350799082161617815e+00
4.424778385337737596e+00 -3.353042635954863737e+00
4.505228901434787048e+00 -3.359710464525082152e+00
4.585679417531836499e+00 -3.376286332102753196e+00
4.666129933628886839e+00 -3.345065741684226435e+00
4.746580449725936290e+00 -3.308269574349916198e+00
4.827030965822985742e+00 -3.314307096504248040e+00
4.907481481920036082e+00 -3.310581021817176950e+00
4.987931998017085533e+00 -3.285806217845757438e+00
5.068382514114135873e+00 -3.286862671006532732e+00
5.148833030211185324e+00 -3.304292070121098934e+00
5.229283546308234776e+00 -3.314990402344493159e+00
5.309734062405285115e+00 -3.313373616758650719e+00
5.390184578502334567e+00 -3.333186780292492823e+00
5.470635094599384018e+00 -3.379808907760078807e+00
5.551085610696433470e+00 -3.408692596914060235e+00
5.631536126793483810e+00 -3.366929272461816502e+00
5.711986642890533261e+00 -3.332775978784805027e+00
5.792437158987582713e+00 -3.372100191255042123e+00
5.872887675084633052e+00 -3.413110557437433190e+00
5.953338191181682504e+00 -3.426642843962095064e+00
6.033788707278731955e+00 -3.427598754575473361e+00
6.114239223375781407e+00 -3.433626292112026857e+00
6.194689739472831747e+00 -3.429282124141290744e+00
6.275140255569881198e+00 -3.417465127060066443e+00
6.355590771666931538e+00 -3.399232371386790241e+00
6.436041287763980989e+00 -3.381663773368158488e+00
6.516491803861030441e+00 -3.416745738175666514e+00
6.596942319958079892e+00 -3.420469899846048545e+00
6.677392836055131120e+00 -3.403517895895893375e+00
6.757843352152180572e+00 -3.397970172591020077e+00
6.838293868249230023e+00 -3.414214666794686437e+00
6.918744384346279475e+00 -3.423532202980985595e+00
6.999194900443328926e+00 -3.431743876162947071e+00
7.079645416540378378e+00 -3.427453775172241368e+00
7.160095932637429605e+00 -3.407544771086314928e+00
7.240546448734479057e+00 -3.386958144074244004e+00
7.320996964831528508e+00 -3.387861896596435773e+00
7.401447480928577960e+00 -3.410137415611232292e+00
7.481897997025627411e+00 -3.423875994365790820e+00
7.562348513122678639e+00 -3.409921900671234241e+00
7.642799029219728091e+00 -3.400497136234702289e+00
7.723249545316777542e+00 -3.439201212689959153e+00
7.803700061413826994e+00 -3.497095635471108910e+00
7.884150577510876445e+00 -3.490210509276757911e+00
7.964601093607927673e+00 -3.445772985365298524e+00
8.045051609704977125e+00 -3.425275356433177265e+00
8.125502125802025688e+00 -3.418315682068761241e+00
8.205952641899076028e+00 -3.414544453248230305e+00
8.286403157996124591e+00 -3.412651328883962165e+00
8.366853674093176707e+00 -3.430046994436446450e+00
8.447304190190225270e+00 -3.449050993327496428e+00
8.527754706287275610e+00 -3.471027238845529439e+00
8.608205222384324173e+00 -3.503319492052697992e+00
8.688655738481374513e+00 -3.509785250167389847e+00
8.769106254578423076e+00 -3.508511732139132810e+00
8.849556770675475192e+00 -3.509033928724068829e+00
8.930007286772523756e+00 -3.478781678900352947e+00
9.010457802869574095e+00 -3.450155856606836213e+00
9.090908318966622659e+00 -3.463127397401100538e+00
9.171358835063672998e+00 -3.501834888601597306e+00
9.251809351160723338e+00 -3.531305796145050468e+00
9.332259867257773678e+00 -3.521116689161699398e+00
9.412710383354822241e+00 -3.492742266404391671e+00
9.493160899451872581e+00 -3.467073516887709150e+00
9.573611415548921144e+00 -3.494037764195417672e+00
9.654061931645971484e+00 -3.517635079026273814e+00
9.734512447743021823e+00 -3.510553845448600274e+00
9.814962963840072163e+00 -3.515243586834967626e+00
9.895413479937120727e+00 -3.531500403128609467e+00
9.975863996034171066e+00 -3.513667494544694847e+00
1.005631451213121963e+01 -3.503905910734780527e+00
1.013676502822827175e+01 -3.537751454522895855e+00
1.021721554432532031e+01 -3.568262302931061836e+00
1.029766606042237065e+01 -3.569534426032722418e+00
