0.000000000000000000e+00 -1.549019599857431873e-01
8.045051609704977069e-02 -1.940156879125572720e-01
1.609010321940995414e-01 -5.414837257654715463e-01
2.413515482911492982e-01 -1.636629033605529804e+00
3.218020643881990828e-01 -2.583781131688896782e+00
4.022525804852488118e-01 -2.963922977638324685e+00
4.827030965822985964e-01 -3.355089863447473508e+00
5.631536126793483810e-01 -3.592680291942015103e+00
6.436041287763981655e-01 -3.696669778953114882e+00
7.240546448734478391e-01 -3.735249933436491698e+00
8.045051609704976237e-01 -3.767002374543767740e+00
8.849556770675472972e-01 -3.820370025911034251e+00
9.654061931645971928e-01 -3.849071533514623056e+00
1.045856709261647088e+00 -3.878913970763367303e+00
1.126307225358696762e+00 -3.935860237890857150e+00
1.206757741455746435e+00 -3.936590531654656999e+00
1.287208257552796331e+00 -3.868736851277938538e+00
1.367658773649846005e+00 -3.819480394729584116e+00
1.448109289746895678e+00 -3.786094148300324758e+00
1.528559805843945352e+00 -3.708996239252816185e+00
1.609010321940995247e+00 -3.608059200570743030e+00
1.689460838038045143e+00 -3.543589897976162195e+00
1.769911354135094594e+00 -3.460195106581522850e+00
1.850361870232144490e+00 -3.403152825853382968e+00
1.930812386329194386e+00 -3.392749415029196136e+00
2.011262902426244281e+00 -3.407938639505394995e+00
2.091713418523294177e+00 -3.421283611765729482e+00
2.172163934620343628e+00 -3.413645115841552169e+00
2.252614450717393524e+00 -3.339548866590988929e+00
2.333064966814443419e+00 -3.249772422796882054e+00
2.413515482911492871e+00 -3.236841575010434013e+00
2.493965999008542767e+00 -3.262269491205975314e+00
2.574416515105592662e+00 -3.227111029987595803e+00
2.654867031202642558e+00 -3.222717417664650252e+00
2.735317547299692009e+00 -3.333281302675249247e+00
2.815768063396741905e+00 -3.446585120054386664e+00
2.896218579493791356e+00 -3.471443727338037633e+00
2.976669095590841252e+00 -3.392520609500720319e+00
3.057119611687890703e+00 -3.300328639542006837e+00
3.137570127784940599e+00 -3.293631223458693746e+00
3.218020643881990495e+00 -3.331196428851099789e+00
3.298471159979039946e+00 -3.392026215814443191e+00
3.378921676076090286e+00 -3.386870764368962838e+00
3.459372192173139737e+00 -3.355188085185468516e+00
3.539822708270189189e+00 -3.330321947007138128e+00
3.620273224367239528e+00 -3.303345260253296889e+00
3.700723740464288980e+00 -3.279410418822628959e+00
3.781174256561339320e+00 -3.243168291151747429e+00
3.861624772658388771e+00 -3.256636604643253108e+00
3.942075288755438223e+00 -3.296005217479326621e+00
4.022525804852488562e+00 -3.277311629258536474e+00
4.102976320949538014e+00 -3.257259684585525950e+00
4.183426837046588354e+00 -3.260347404469457810e+00
4.263877353143637805e+00 -3.283034925690584416e+00
4.344327869240687257e+00 -3.276094455704814390e+00
4.424778385337737596e+00 -3.290907717349309092e+00
4.505228901434787048e+00 -3.320335719098470140e+00
4.585679417531836499e+00 -3.334601120291084353e+00
4.666129933628886839e+00 -3.360974303590449797e+00
4.746580449725936290e+00 -3.390644231130168329e+00
4.827030965822985742e+00 -3.384424984843940276e+00
4.907481481920036082e+00 -3.358095063695243354e+00
4.987931998017085533e+00 -3.351537298711424473e+00
5.068382514114135873e+00 -3.361711516650524256e+00
5.148833030211185324e+00 -3.388373979949873771e+00
5.229283546308234776e+00 -3.394408344263675215e+00
5.309734062405285115e+00 -3.367223273890120439e+00
5.390184578502334567e+00 -3.333651367377371777e+00
5.470635094599384018e+00 -3.315654664848096012e+00
5.551085610696433470e+00 -3.290020625255528408e+00
5.631536126793483810e+00 -3.270732966143713671e+00
5.711986642890533261e+00 -3.275185426588012039e+00
5.792437158987582713e+00 -3.329946580100119569e+00
5.872887675084633052e+00 -3.372331110860802283e+00
5.953338191181682504e+00 -3.377528062012848498e+00
6.033788707278731955e+00 -3.393471123887933594e+00
6.114239223375781407e+00 -3.376910953983302655e+00
6.194689739472831747e+00 -3.354486467640700909e+00
6.275140255569881198e+00 -3.340129682764799046e+00
6.355590771666931538e+00 -3.356734287155613838e+00
6.436041287763980989e+00 -3.390696228540835300e+00
6.516491803861030441e+00 -3.417166810344596684e+00
6.596942319958079892e+00 -3.425746050407557419e+00
6.677392836055131120e+00 -3.403696887971353391e+00
6.757843352152180572e+00 -3.382019984051904515e+00
6.838293868249230023e+00 -3.370118200274648146e+00
6.918744384346279475e+00 -3.387997203682878933e+00
6.999194900443328926e+00 -3.397556505280224126e+00
7.079645416540378378e+00 -3.392644557829865182e+00
7.160095932637429605e+00 -3.385376574875533784e+00
7.240546448734479057e+00 -3.378783199787019687e+00
7.320996964831528508e+00 -3.403791345143654556e+00
7.401447480928577960e+00 -3.426069923251255922e+00
7.481897997025627411e+00 -3.432457320663623079e+00
7.562348513122678639e+00 -3.447924351396258302e+00
7.642799029219728091e+00 -3.444332774189967861e+00
7.723249545316777542e+00 -3.426475392513459450e+00
7.803700061413826994e+00 -3.406595213833569780e+00
7.884150577510876445e+00 -3.414470792304093116e+00
7.964601093607927673e+00 -3.432831231156539431e+00
8.045051609704977125e+00 -3.429484682188317812e+00
8.125502125802025688e+00 -3.450181840938030042e+00
8.205952641899076028e+00 -3.466321516344717413e+00
8.286403157996124591e+00 -3.450790628707762764e+00
8.366853674093176707e+00 -3.433075963154676113e+00
8.447304190190225270e+00 -3.425342681623950725e+00
8.527754706287275610e+00 -3.420602990732059201e+00
8.608205222384324173e+00 -3.424780339553708419e+00
8.688655738481374513e+00 -3.439417941475311657e+00
8.769106254578423076e+00 -3.455312916490615560e+00
8.849556770675475192e+00 -3.456890775709830166e+00
8.930007286772523756e+00 -3.457108159207805009e+00
9.010457802869574095e+00 -3.450669592867850799e+00
9.090908318966622659e+00 -3.453496268530921842e+00
9.171358835063672998e+00 -3.456153963917588889e+00
9.251809351160723338e+00 -3.466140649724537059e+00
9.332259867257773678e+00 -3.466284066688680721e+00
9.412710383354822241e+00 -3.464107995716386501e+00
9.493160899451872581e+00 -3.454513365563185001e+00
9.573611415548921144e+00 -3.429806932757855975e+00
9.654061931645971484e+00 -3.425712686943859886e+00
9.734512447743021823e+00 -3.434669535381506211e+00
9.814962963840072163e+00 -3.462924354875846156e+00
9.895413479937120727e+00 -3.489360328075289619e+00
9.975863996034171066e+00 -3.505977363309072281e+00
1.005631451213121963e+01 -3.515830666297577345e+00
1.013676502822827175e+01 -3.536202862493523114e+00
1.021721554432532031e+01 -3.539111220486233833e+00
1.029766606042237065e+01 -3.535168423802389714e+00
