0.000000000000000000e+00 -1.549019599857431873e-01
8.045051609704977069e-02 -3.946727853557336907e-01
1.609010321940995414e-01 -1.202812495202295828e+00
2.413515482911492982e-01 -3.260331687949782786e+00
3.218020643881990828e-01 -4.247292831439733796e+00
4.022525804852488118e-01 -5.120525524214253110e+00
4.827030965822985964e-01 -6.085341535081338904e+00
5.631536126793483810e-01 -6.386608014421151225e+00
6.436041287763981655e-01 -6.815907369650270553e+00
7.240546448734478391e-01 -7.350619313404405553e+00
8.045051609704976237e-01 -7.736505077653290208e+00
8.849556770675472972e-01 -7.741214941040911235e+00
9.654061931645971928e-01 -7.641440039065493295e+00
1.045856709261647088e+00 -7.681351581022792807e+00
1.126307225358696762e+00 -7.636584762841869711e+00
1.206757741455746435e+00 -7.480075947745509879e+00
1.287208257552796331e+00 -7.343843031726258630e+00
1.367658773649846005e+00 -7.258721988820070692e+00
1.448109289746895678e+00 -7.267475721858955851e+00
1.528559805843945352e+00 -7.368709667452118417e+00
1.609010321940995247e+00 -7.313388546776309340e+00
1.689460838038045143e+00 -7.150926683809710305e+00
1.769911354135094594e+00 -7.047705341374133958e+00
1.850361870232144490e+00 -6.983064613528555675e+00
1.930812386329194386e+00 -6.881332845574508639e+00
2.011262902426244281e+00 -6.851531823745592220e+00
2.091713418523294177e+00 -6.865902689470878784e+00
2.172163934620343628e+00 -6.873512223635378504e+00
2.252614450717393524e+00 -6.711711025412816056e+00
2.333064966814443419e+00 -6.562896187666533265e+00
2.413515482911492871e+00 -6.506819204787063882e+00
2.493965999008542767e+00 -6.567789284893936319e+00
2.574416515105592662e+00 -6.619574989786887187e+00
2.654867031202642558e+00 -6.547387719141473994e+00
2.735317547299692009e+00 -6.414294306183505157e+00
2.815768063396741905e+00 -6.390504537137086771e+00
2.896218579493791356e+00 -6.429201993340725174e+00
2.976669095590841252e+00 -6.552655917147840903e+00
3.057119611687890703e+00 -6.685899415439521043e+00
3.137570127784940599e+00 -6.735388512600935407e+00
3.218020643881990495e+00 -6.656564288278146613e+00
3.298471159979039946e+00 -6.558978720463175094e+00
3.378921676076090286e+00 -6.517638147084710454e+00
3.459372192173139737e+00 -6.495039278910070379e+00
3.539822708270189189e+00 -6.495403289987947026e+00
3.620273224367239528e+00 -6.518476738113514024e+00
3.700723740464288980e+00 -6.605196783454942100e+00
3.781174256561339320e+00 -6.696214752466946862e+00
3.861624772658388771e+00 -6.733268077143195640e+00
3.942075288755438223e+00 -6.725373938675206276e+00
4.022525804852488562e+00 -6.744395919142936791e+00
4.102976320949538014e+00 -6.736251740632217988e+00
4.183426837046588354e+00 -6.730407839988821195e+00
4.263877353143637805e+00 -6.666197496625127172e+00
4.344327869240687257e+00 -6.595535639229017200e+00
4.424778385337737596e+00 -6.564644301382512204e+00
4.505228901434787048e+00 -6.559379630097266656e+00
4.585679417531836499e+00 -6.587601103594166396e+00
4.666129933628886839e+00 -6.672189096753675663e+00
4.746580449725936290e+00 -6.752581622660914107e+00
4.827030965822985742e+00 -6.784678165476234923e+00
4.907481481920036082e+00 -6.758331147601492894e+00
4.987931998017085533e+00 -6.697635916229651265e+00
5.068382514114135873e+00 -6.692301099200043346e+00
5.148833030211185324e+00 -6.693155742430856314e+00
5.229283546308234776e+00 -6.681041098493124331e+00
5.309734062405285115e+00 -6.636994782253492708e+00
5.390184578502334567e+00 -6.600796319809726143e+00
5.470635094599384018e+00 -6.646679804736449704e+00
5.551085610696433470e+00 -6.757691598778193587e+00
5.631536126793483810e+00 -6.816227955875582722e+00
5.711986642890533261e+00 -6.809761414823885417e+00
5.792437158987582713e+00 -6.709055432267883923e+00
5.872887675084633052e+00 -6.638329084058474550e+00
5.953338191181682504e+00 -6.685840249418378178e+00
6.033788707278731955e+00 -6.766005261613933897e+00
6.114239223375781407e+00 -6.801511469481131833e+00
6.194689739472831747e+00 -6.875254208318630766e+00
6.275140255569881198e+00 -6.901943347535156370e+00
6.355590771666931538e+00 -6.869197078105136356e+00
6.436041287763980989e+00 -6.855602565682358041e+00
6.516491803861030441e+00 -6.886224021478344781e+00
6.596942319958079892e+00 -6.878625841367566274e+00
6.677392836055131120e+00 -6.814523915569408175e+00
6.757843352152180572e+00 -6.749902500048857945e+00
6.838293868249230023e+00 -6.794340567638860406e+00
6.918744384346279475e+00 -6.830495450199152607e+00
6.999194900443328926e+00 -6.801857502001473321e+00
7.079645416540378378e+00 -6.755655611099657953e+00
7.160095932637429605e+00 -6.775662605571545427e+00
7.240546448734479057e+00 -6.836683638715649103e+00
7.320996964831528508e+00 -6.912405123359826931e+00
7.401447480928577960e+00 -6.965425698239315011e+00
7.481897997025627411e+00 -6.952395310111300297e+00
7.562348513122678639e+00 -6.909230554698119420e+00
7.642799029219728091e+00 -6.854880911601219928e+00
7.723249545316777542e+00 -6.838927345883906384e+00
7.803700061413826994e+00 -6.839542016426716664e+00
7.884150577510876445e+00 -6.827953637201059855e+00
7.964601093607927673e+00 -6.866322049376180736e+00
8.045051609704977125e+00 -6.854206862778290166e+00
8.125502125802025688e+00 -6.815239994099073328e+00
8.205952641899076028e+00 -6.778235198790914851e+00
8.286403157996124591e+00 -6.806232737900749008e+00
8.366853674093176707e+00 -6.851973496815787712e+00
8.447304190190225270e+00 -6.891200627978489202e+00
8.527754706287275610e+00 -6.901606724824611128e+00
8.608205222384324173e+00 -6.938458226743317248e+00
8.688655738481374513e+00 -6.918291735651953545e+00
8.769106254578423076e+00 -6.884434838552118130e+00
8.849556770675475192e+00 -6.872672438251711036e+00
8.930007286772523756e+00 -6.916322074854527102e+00
9.010457802869574095e+00 -6.954029261442864929e+00
9.090908318966622659e+00 -6.964307591517351348e+00
9.171358835063672998e+00 -6.948760560271478148e+00
9.251809351160723338e+00 -6.915336777271478219e+00
9.332259867257773678e+00 -6.876478753693591628e+00
9.412710383354822241e+00 -6.890831736287499787e+00
9.493160899451872581e+00 -6.952281977233632837e+00
9.573611415548921144e+00 -7.017541311324671405e+00
9.654061931645971484e+00 -7.029044730322378420e+00
9.734512447743021823e+00 -7.038127522297260796e+00
9.814962963840072163e+00 -7.022993832068928022e+00
9.895413479937120727e+00 -6.988285705877291143e+00
9.975863996034171066e+00 -7.025072594820037430e+00
1.005631451213121963e+01 -7.085807096229391533e+00
1.013676502822827175e+01 -7.074727202191456676e+00
1.021721554432532031e+01 -7.084107660590468036e+00
1.029766606042237065e+01 -7.112754385386880429e+00
