0.000000000000000000e+00 -1.549019599857431873e-01
8.045051609704977069e-02 -2.004638650862830274e-01
1.609010321940995414e-01 -5.771702431333392003e-01
2.413515482911492982e-01 -1.831267230802317014e+00
3.218020643881990828e-01 -2.293568049423547528e+00
4.022525804852488118e-01 -3.013835429256163767e+00
4.827030965822985964e-01 -3.443079060534411262e+00
5.631536126793483810e-01 -3.555497295429836502e+00
6.436041287763981655e-01 -3.562605607027850674e+00
7.240546448734478391e-01 -3.606439515360412518e+00
8.045051609704976237e-01 -3.780753979428034928e+00
8.849556770675472972e-01 -4.026940780560658517e+00
9.654061931645971928e-01 -4.097791084264487793e+00
1.045856709261647088e+00 -4.016140666880690269e+00
1.126307225358696762e+00 -3.902390893623672863e+00
1.206757741455746435e+00 -3.851363060297637197e+00
1.287208257552796331e+00 -3.888532160740607591e+00
1.367658773649846005e+00 -3.927274280585497657e+00
1.448109289746895678e+00 -3.897874954074752818e+00
1.528559805843945352e+00 -3.784333649411216527e+00
1.609010321940995247e+00 -3.721770106068284178e+00
1.689460838038045143e+00 -3.694840965856259540e+00
1.769911354135094594e+00 -3.578385128741455645e+00
1.850361870232144490e+00 -3.450615997176333050e+00
1.930812386329194386e+00 -3.381269633957858289e+00
2.011262902426244281e+00 -3.380469579222076693e+00
2.091713418523294177e+00 -3.341041129100034368e+00
2.172163934620343628e+00 -3.343421426050441791e+00
2.252614450717393524e+00 -3.401706358745265835e+00
2.333064966814443419e+00 -3.404705099746024644e+00
2.413515482911492871e+00 -3.349077438716344890e+00
2.493965999008542767e+00 -3.319730262291013201e+00
2.574416515105592662e+00 -3.326395679945737260e+00
2.654867031202642558e+00 -3.367934647333024056e+00
2.735317547299692009e+00 -3.391451216793388124e+00
2.815768063396741905e+00 -3.381564311365064412e+00
2.896218579493791356e+00 -3.383349293245193401e+00
2.976669095590841252e+00 -3.426400024682870971e+00
3.057119611687890703e+00 -3.423475379569233645e+00
3.137570127784940599e+00 -3.401180750314261481e+00
3.218020643881990495e+00 -3.356371911354857573e+00
3.298471159979039946e+00 -3.342058959489062619e+00
3.378921676076090286e+00 -3.337930547777079759e+00
3.459372192173139737e+00 -3.302137527931671812e+00
3.539822708270189189e+00 -3.279143075257328732e+00
3.620273224367239528e+00 -3.298886954758246226e+00
3.700723740464288980e+00 -3.314413875166948298e+00
3.781174256561339320e+00 -3.282639212445999988e+00
3.861624772658388771e+00 -3.249597105398432273e+00
3.942075288755438223e+00 -3.241941900167077506e+00
4.022525804852488562e+00 -3.256895417845941942e+00
4.102976320949538014e+00 -3.272596446683012417e+00
4.183426837046588354e+00 -3.295510294019418307e+00
4.263877353143637805e+00 -3.328180470238813804e+00
4.344327869240687257e+00 -3.365254143338439974e+00
4.424778385337737596e+00 -3.358519260140367280e+00
4.505228901434787048e+00 -3.359054963877507571e+00
4.585679417531836499e+00 -3.319498536095109475e+00
4.666129933628886839e+00 -3.283380305644740371e+00
4.746580449725936290e+00 -3.264346235465651613e+00
4.827030965822985742e+00 -3.291475190230426229e+00
4.907481481920036082e+00 -3.315433390378921263e+00
4.987931998017085533e+00 -3.320518793940479885e+00
5.068382514114135873e+00 -3.330796023241661352e+00
5.148833030211185324e+00 -3.365077926908807360e+00
5.229283546308234776e+00 -3.361803421206826847e+00
5.309734062405285115e+00 -3.333020392776360197e+00
5.390184578502334567e+00 -3.311468641403060076e+00
5.470635094599384018e+00 -3.327813356236935416e+00
5.551085610696433470e+00 -3.361199038018642060e+00
5.631536126793483810e+00 -3.405971985194423901e+00
5.711986642890533261e+00 -3.409176968543499164e+00
5.792437158987582713e+00 -3.369317532886291211e+00
5.872887675084633052e+00 -3.359614924975521166e+00
5.953338191181682504e+00 -3.377679414185839057e+00
6.033788707278731955e+00 -3.361232265150762011e+00
6.114239223375781407e+00 -3.337542923811608109e+00
6.194689739472831747e+00 -3.336134705151930557e+00
6.275140255569881198e+00 -3.352472995650485288e+00
6.355590771666931538e+00 -3.413033129306795033e+00
6.436041287763980989e+00 -3.441314833754722358e+00
6.516491803861030441e+00 -3.408004651783233196e+00
6.596942319958079892e+00 -3.382735271782953301e+00
6.677392836055131120e+00 -3.390510794506638614e+00
6.757843352152180572e+00 -3.397016867243284555e+00
6.838293868249230023e+00 -3.392317375172964944e+00
6.918744384346279475e+00 -3.434321461853556023e+00
6.999194900443328926e+00 -3.478098607255064145e+00
7.079645416540378378e+00 -3.498633262504174279e+00
7.160095932637429605e+00 -3.509085697293319317e+00
7.240546448734479057e+00 -3.505124306041433879e+00
7.320996964831528508e+00 -3.479300822069276933e+00
7.401447480928577960e+00 -3.474732447750184861e+00
7.481897997025627411e+00 -3.461743526909439872e+00
7.562348513122678639e+00 -3.470276680101156863e+00
7.642799029219728091e+00 -3.494573875926992201e+00
7.723249545316777542e+00 -3.495411535116447421e+00
7.803700061413826994e+00 -3.479558305629325332e+00
7.884150577510876445e+00 -3.467205103603788974e+00
7.964601093607927673e+00 -3.479256608598660261e+00
8.045051609704977125e+00 -3.503444391916126666e+00
8.125502125802025688e+00 -3.504049131273637485e+00
8.205952641899076028e+00 -3.483663079591064360e+00
8.286403157996124591e+00 -3.492697969577618355e+00
8.366853674093176707e+00 -3.496900652964948009e+00
8.447304190190225270e+00 -3.492866345482506851e+00
8.527754706287275610e+00 -3.496907677881103016e+00
8.608205222384324173e+00 -3.499197146655641522e+00
8.688655738481374513e+00 -3.507768430325042708e+00
8.769106254578423076e+00 -3.524202394050186093e+00
8.849556770675475192e+00 -3.544272290695676286e+00
8.930007286772523756e+00 -3.542682268570274573e+00
9.010457802869574095e+00 -3.515165602612705609e+00
9.090908318966622659e+00 -3.493034557448951194e+00
9.171358835063672998e+00 -3.483018102393955040e+00
9.251809351160723338e+00 -3.489637816000237702e+00
9.332259867257773678e+00 -3.474135538168550141e+00
9.412710383354822241e+00 -3.447083154810855810e+00
9.493160899451872581e+00 -3.461987317189557878e+00
9.573611415548921144e+00 -3.494834735703021611e+00
9.654061931645971484e+00 -3.503244729282359859e+00
9.734512447743021823e+00 -3.513856830997581948e+00
9.814962963840072163e+00 -3.536005153950123603e+00
9.895413479937120727e+00 -3.562799390870159844e+00
9.975863996034171066e+00 -3.559122514985048280e+00
1.005631451213121963e+01 -3.551426438282292430e+00
1.013676502822827175e+01 -3.547932437132842232e+00
1.021721554432532031e+01 -3.529820634435645310e+00
1.029766606042237065e+01 -3.527002908728250397e+00
