0.000000000000000000e+00 -1.549019599857431873e-01
8.045051609704977069e-02 -3.890562731161782417e-01
1.609010321940995414e-01 -1.169649476472049310e+00
2.413515482911492982e-01 -2.694456056698951940e+00
3.218020643881990828e-01 -2.802048332699518252e+00
4.022525804852488118e-01 -2.805816274506813368e+00
4.827030965822985964e-01 -3.186074409490535775e+00
5.631536126793483810e-01 -3.725949609732092771e+00
6.436041287763981655e-01 -4.139739292199464238e+00
7.240546448734478391e-01 -4.359285174778463556e+00
8.045051609704976237e-01 -4.671463140894640098e+00
8.849556770675472972e-01 -4.874083055994560709e+00
9.654061931645971928e-01 -5.068669129034030441e+00
1.045856709261647088e+00 -5.314454694022551884e+00
1.126307225358696762e+00 -5.515958954938946057e+00
1.206757741455746435e+00 -5.654698309429161185e+00
1.287208257552796331e+00 -5.747028032952092857e+00
1.367658773649846005e+00 -5.766554137495329968e+00
1.448109289746895678e+00 -5.727722875425620863e+00
1.528559805843945352e+00 -5.661367381715654901e+00
1.609010321940995247e+00 -5.553589925455895582e+00
1.689460838038045143e+00 -5.513600176077947168e+00
1.769911354135094594e+00 -5.350777801425985913e+00
1.850361870232144490e+00 -5.246190488139602870e+00
1.930812386329194386e+00 -5.158347821339801520e+00
2.011262902426244281e+00 -5.195904833764778630e+00
2.091713418523294177e+00 -5.222871765883744466e+00
2.172163934620343628e+00 -5.220933712639904023e+00
2.252614450717393524e+00 -5.275081835487632986e+00
2.333064966814443419e+00 -5.435575407583323582e+00
2.413515482911492871e+00 -5.455672963576924772e+00
2.493965999008542767e+00 -5.283857843111874786e+00
2.574416515105592662e+00 -5.242178825325486180e+00
2.654867031202642558e+00 -5.270257033841619254e+00
2.735317547299692009e+00 -5.297190228407771428e+00
2.815768063396741905e+00 -5.274830744263470983e+00
2.896218579493791356e+00 -5.228365592089385672e+00
2.976669095590841252e+00 -5.219186738478182264e+00
3.057119611687890703e+00 -5.285412147463576460e+00
3.137570127784940599e+00 -5.395648145063287160e+00
3.218020643881990495e+00 -5.368922962021779988e+00
3.298471159979039946e+00 -5.248464207295482353e+00
3.378921676076090286e+00 -5.233007311110267068e+00
3.459372192173139737e+00 -5.272742794513209930e+00
3.539822708270189189e+00 -5.193214844229227189e+00
3.620273224367239528e+00 -5.132301828997796633e+00
3.700723740464288980e+00 -5.191911220299516572e+00
3.781174256561339320e+00 -5.269689259647201141e+00
3.861624772658388771e+00 -5.183555709456083349e+00
3.942075288755438223e+00 -5.057563315478263100e+00
4.022525804852488562e+00 -5.041508545332589186e+00
4.102976320949538014e+00 -5.178722066559064530e+00
4.183426837046588354e+00 -5.220383405428930423e+00
4.263877353143637805e+00 -5.185031369666841528e+00
4.344327869240687257e+00 -5.177965849804454734e+00
4.424778385337737596e+00 -5.189417549405323626e+00
4.505228901434787048e+00 -5.212382531148946896e+00
4.585679417531836499e+00 -5.218825124258676951e+00
4.666129933628886839e+00 -5.272700384276978625e+00
4.746580449725936290e+00 -5.352601594059239964e+00
4.827030965822985742e+00 -5.397663927475779388e+00
4.907481481920036082e+00 -5.350619399810086385e+00
4.987931998017085533e+00 -5.244053598409214700e+00
5.068382514114135873e+00 -5.190290115879552246e+00
5.148833030211185324e+00 -5.209749286215366482e+00
5.229283546308234776e+00 -5.260937689330692280e+00
5.309734062405285115e+00 -5.245422105851313965e+00
5.390184578502334567e+00 -5.220094847120113180e+00
5.470635094599384018e+00 -5.246863255567141948e+00
5.551085610696433470e+00 -5.291391889384676972e+00
5.631536126793483810e+00 -5.291719733368108081e+00
5.711986642890533261e+00 -5.276996561882730141e+00
5.792437158987582713e+00 -5.214085393132275925e+00
5.872887675084633052e+00 -5.192249941368666910e+00
5.953338191181682504e+00 -5.211271953057103445e+00
6.033788707278731955e+00 -5.273195000334530036e+00
6.114239223375781407e+00 -5.273451236503781558e+00
6.194689739472831747e+00 -5.286944892471404422e+00
6.275140255569881198e+00 -5.370675435924552765e+00
6.355590771666931538e+00 -5.420839327129237439e+00
6.436041287763980989e+00 -5.444455886853641680e+00
6.516491803861030441e+00 -5.515764322572343836e+00
6.596942319958079892e+00 -5.565512648308118315e+00
6.677392836055131120e+00 -5.606535072081953786e+00
6.757843352152180572e+00 -5.621779206431167353e+00
6.838293868249230023e+00 -5.584853311770939577e+00
6.918744384346279475e+00 -5.499486962258534284e+00
6.999194900443328926e+00 -5.488875583400584013e+00
7.079645416540378378e+00 -5.468420723632192448e+00
7.160095932637429605e+00 -5.466325482676034575e+00
7.240546448734479057e+00 -5.484755962883761882e+00
7.320996964831528508e+00 -5.473608113386437601e+00
7.401447480928577960e+00 -5.409113221322451537e+00
7.481897997025627411e+00 -5.379541829841263834e+00
7.562348513122678639e+00 -5.349083074611035826e+00
7.642799029219728091e+00 -5.364628685241263462e+00
7.723249545316777542e+00 -5.399057966791015239e+00
7.803700061413826994e+00 -5.457363892123411553e+00
7.884150577510876445e+00 -5.454739328180665758e+00
7.964601093607927673e+00 -5.429791109094143309e+00
8.045051609704977125e+00 -5.441345739752081023e+00
8.125502125802025688e+00 -5.518012134219363318e+00
8.205952641899076028e+00 -5.498163337059088107e+00
8.286403157996124591e+00 -5.449095671486953840e+00
8.366853674093176707e+00 -5.462997591422519505e+00
8.447304190190225270e+00 -5.478230021490732682e+00
8.527754706287275610e+00 -5.435096181990645370e+00
8.608205222384324173e+00 -5.456562599909027256e+00
8.688655738481374513e+00 -5.554827903587188587e+00
8.769106254578423076e+00 -5.605096023450236942e+00
8.849556770675475192e+00 -5.560912993223275258e+00
8.930007286772523756e+00 -5.526418207095024293e+00
9.010457802869574095e+00 -5.526104704862580874e+00
9.090908318966622659e+00 -5.516003193012330108e+00
9.171358835063672998e+00 -5.532158881983886722e+00
9.251809351160723338e+00 -5.574561648008311998e+00
9.332259867257773678e+00 -5.578790494098129216e+00
9.412710383354822241e+00 -5.581039670281529474e+00
9.493160899451872581e+00 -5.575744486173957348e+00
9.573611415548921144e+00 -5.608249009987473777e+00
9.654061931645971484e+00 -5.623547591210106944e+00
9.734512447743021823e+00 -5.596752038699738918e+00
9.814962963840072163e+00 -5.552521550421419150e+00
9.895413479937120727e+00 -5.537966420385276756e+00
9.975863996034171066e+00 -5.531217575782740425e+00
1.005631451213121963e+01 -5.561128460755586644e+00
1.013676502822827175e+01 -5.627820183001884580e+00
1.021721554432532031e+01 -5.656375949038412898e+00
1.029766606042237065e+01 -5.639110411393701838e+00
