0.000000000000000000e+00 -1.549019599857431873e-01
8.045051609704977069e-02 -1.938137623506623608e-01
1.609010321940995414e-01 -5.290088504218791732e-01
2.413515482911492982e-01 -1.169219988083202821e+00
3.218020643881990828e-01 -1.286639399439532871e+00
4.022525804852488118e-01 -1.330885243309826382e+00
4.827030965822985964e-01 -1.557249011136379480e+00
5.631536126793483810e-01 -1.886345112676086844e+00
6.436041287763981655e-01 -2.169347048400364741e+00
7.240546448734478391e-01 -2.363552724482259837e+00
8.045051609704976237e-01 -2.532857447000788298e+00
8.849556770675472972e-01 -2.684863552764641614e+00
9.654061931645971928e-01 -2.775467696641828574e+00
1.045856709261647088e+00 -2.803317793030340344e+00
1.126307225358696762e+00 -2.848464566702542111e+00
1.206757741455746435e+00 -2.922507592718637248e+00
1.287208257552796331e+00 -2.894249925010066171e+00
1.367658773649846005e+00 -2.800114302415166456e+00
1.448109289746895678e+00 -2.761431880227583235e+00
1.528559805843945352e+00 -2.773608731910415237e+00
1.609010321940995247e+00 -2.828649869751952650e+00
1.689460838038045143e+00 -2.913109985211820518e+00
1.769911354135094594e+00 -2.984815553520903553e+00
1.850361870232144490e+00 -2.938142678000670749e+00
1.930812386329194386e+00 -2.784087053993402172e+00
2.011262902426244281e+00 -2.665877122180759784e+00
2.091713418523294177e+00 -2.593683691984356443e+00
2.172163934620343628e+00 -2.607586400909591706e+00
2.252614450717393524e+00 -2.631329457369341096e+00
2.333064966814443419e+00 -2.643391698278387381e+00
2.413515482911492871e+00 -2.635488388647383218e+00
2.493965999008542767e+00 -2.625459123837883268e+00
2.574416515105592662e+00 -2.590604692352877159e+00
2.654867031202642558e+00 -2.569265583015001742e+00
2.735317547299692009e+00 -2.590095141794615863e+00
2.815768063396741905e+00 -2.659281369302728404e+00
2.896218579493791356e+00 -2.684153494432569786e+00
2.976669095590841252e+00 -2.688083305185936300e+00
3.057119611687890703e+00 -2.673780911728386389e+00
3.137570127784940599e+00 -2.667264080594422104e+00
3.218020643881990495e+00 -2.670863788107640691e+00
3.298471159979039946e+00 -2.635914478637863212e+00
3.378921676076090286e+00 -2.590482026135012550e+00
3.459372192173139737e+00 -2.589561651719156643e+00
3.539822708270189189e+00 -2.620256496421747183e+00
3.620273224367239528e+00 -2.604953393030079223e+00
3.700723740464288980e+00 -2.596720681117091978e+00
3.781174256561339320e+00 -2.618137265166359473e+00
3.861624772658388771e+00 -2.601681072340118916e+00
3.942075288755438223e+00 -2.581931720019088328e+00
4.022525804852488562e+00 -2.577199391225178715e+00
4.102976320949538014e+00 -2.581556494856676931e+00
4.183426837046588354e+00 -2.602299894547461356e+00
4.263877353143637805e+00 -2.642597598778642976e+00
4.344327869240687257e+00 -2.645776832233048825e+00
4.424778385337737596e+00 -2.647926495223452026e+00
4.505228901434787048e+00 -2.653633069100802100e+00
4.585679417531836499e+00 -2.656522272218100778e+00
4.666129933628886839e+00 -2.679512160683504174e+00
4.746580449725936290e+00 -2.672562112012496272e+00
4.827030965822985742e+00 -2.646022027728737847e+00
4.907481481920036082e+00 -2.618383114966315262e+00
4.987931998017085533e+00 -2.609087585665803566e+00
5.068382514114135873e+00 -2.606269138723459555e+00
5.148833030211185324e+00 -2.617370074581002015e+00
5.229283546308234776e+00 -2.631152326368827676e+00
5.309734062405285115e+00 -2.660618752941139586e+00
5.390184578502334567e+00 -2.694566682079644337e+00
5.470635094599384018e+00 -2.708444335160842265e+00
5.551085610696433470e+00 -2.688990877549756853e+00
5.631536126793483810e+00 -2.667475722870682020e+00
5.711986642890533261e+00 -2.635755645371908429e+00
5.792437158987582713e+00 -2.624659296724006108e+00
5.872887675084633052e+00 -2.620688973605755923e+00
5.953338191181682504e+00 -2.635964216223590562e+00
6.033788707278731955e+00 -2.656523640351896809e+00
6.114239223375781407e+00 -2.679906536596020850e+00
6.194689739472831747e+00 -2.696868925217555280e+00
6.275140255569881198e+00 -2.684556750673436909e+00
6.355590771666931538e+00 -2.674781285476392156e+00
6.436041287763980989e+00 -2.662183552677952925e+00
6.516491803861030441e+00 -2.643105789799650385e+00
6.596942319958079892e+00 -2.637959392173840900e+00
6.677392836055131120e+00 -2.666236250735186886e+00
6.757843352152180572e+00 -2.679872024455024704e+00
6.838293868249230023e+00 -2.687686748755259813e+00
6.918744384346279475e+00 -2.692134562615043691e+00
6.999194900443328926e+00 -2.712488725432181447e+00
7.079645416540378378e+00 -2.739148003681495691e+00
7.160095932637429605e+00 -2.745071588914841598e+00
7.240546448734479057e+00 -2.722536151032784790e+00
7.320996964831528508e+00 -2.712160618874903228e+00
7.401447480928577960e+00 -2.723004310298003272e+00
7.481897997025627411e+00 -2.742180765546114340e+00
7.562348513122678639e+00 -2.737535724759584621e+00
7.642799029219728091e+00 -2.717718079699927625e+00
7.723249545316777542e+00 -2.708944304939643999e+00
7.803700061413826994e+00 -2.726821610783788596e+00
7.884150577510876445e+00 -2.770785057889423975e+00
7.964601093607927673e+00 -2.785160727963201133e+00
8.045051609704977125e+00 -2.761472997937938878e+00
8.125502125802025688e+00 -2.751701407054001347e+00
8.205952641899076028e+00 -2.746206768831690237e+00
8.286403157996124591e+00 -2.715139935321428055e+00
8.366853674093176707e+00 -2.692071667164748661e+00
8.447304190190225270e+00 -2.714358740945243209e+00
8.527754706287275610e+00 -2.725985581699287952e+00
8.608205222384324173e+00 -2.710879091170338651e+00
8.688655738481374513e+00 -2.712501867803513100e+00
8.769106254578423076e+00 -2.726155646625914475e+00
8.849556770675475192e+00 -2.750298398278970602e+00
8.930007286772523756e+00 -2.795387207899973969e+00
9.010457802869574095e+00 -2.809021439894099359e+00
9.090908318966622659e+00 -2.790814862497214222e+00
9.171358835063672998e+00 -2.768914516689280347e+00
9.251809351160723338e+00 -2.764948639678296960e+00
9.332259867257773678e+00 -2.768110435271412761e+00
9.412710383354822241e+00 -2.762184819633856314e+00
9.493160899451872581e+00 -2.769829451373517326e+00
9.573611415548921144e+00 -2.785970539852546946e+00
9.654061931645971484e+00 -2.805162973638233304e+00
9.734512447743021823e+00 -2.813077726718970606e+00
9.814962963840072163e+00 -2.825077763128598374e+00
9.895413479937120727e+00 -2.834991265614005496e+00
9.975863996034171066e+00 -2.825808701912733145e+00
1.005631451213121963e+01 -2.813998650295702841e+00
1.013676502822827175e+01 -2.819110380574453956e+00
1.021721554432532031e+01 -2.820823460798215887e+00
1.029766606042237065e+01 -2.817985546782508788e+00
