0.000000000000000000e+00 -1.549019599857431873e-01
8.045051609704977069e-02 -1.796668004963960230e-01
1.609010321940995414e-01 -4.527355162818404444e-01
2.413515482911492982e-01 -9.832015887994052239e-01
3.218020643881990828e-01 -1.191641835350395251e+00
4.022525804852488118e-01 -1.238916473983830979e+00
4.827030965822985964e-01 -1.405341638464959964e+00
5.631536126793483810e-01 -1.790972479313492682e+00
6.436041287763981655e-01 -2.153139476113787421e+00
7.240546448734478391e-01 -2.303236523749856879e+00
8.045051609704976237e-01 -2.387525030686131089e+00
8.849556770675472972e-01 -2.444291085251633078e+00
9.654061931645971928e-01 -2.496421891209910982e+00
1.045856709261647088e+00 -2.582643979938921142e+00
1.126307225358696762e+00 -2.700773862216021559e+00
1.206757741455746435e+00 -2.730070694423236688e+00
1.287208257552796331e+00 -2.723796996133504678e+00
1.367658773649846005e+00 -2.777410039254247121e+00
1.448109289746895678e+00 -2.861005955960336244e+00
1.528559805843945352e+00 -2.893897766366511970e+00
1.609010321940995247e+00 -2.891426274138353847e+00
1.689460838038045143e+00 -2.833509679072445664e+00
1.769911354135094594e+00 -2.778297760895954482e+00
1.850361870232144490e+00 -2.750795810866120572e+00
1.930812386329194386e+00 -2.738913164172507742e+00
2.011262902426244281e+00 -2.727244201306348259e+00
2.091713418523294177e+00 -2.699708696381792006e+00
2.172163934620343628e+00 -2.659871296832113430e+00
2.252614450717393524e+00 -2.625009845973587108e+00
2.333064966814443419e+00 -2.584264437042185669e+00
2.413515482911492871e+00 -2.571635267889327281e+00
2.493965999008542767e+00 -2.562390856372113834e+00
2.574416515105592662e+00 -2.561158731334657990e+00
2.654867031202642558e+00 -2.606803754997821798e+00
2.735317547299692009e+00 -2.673879872366840438e+00
2.815768063396741905e+00 -2.692499518773741940e+00
2.896218579493791356e+00 -2.635506923797771961e+00
2.976669095590841252e+00 -2.589879800535963117e+00
3.057119611687890703e+00 -2.583818688674570208e+00
3.137570127784940599e+00 -2.604885079604565057e+00
3.218020643881990495e+00 -2.615745160105543032e+00
3.298471159979039946e+00 -2.628881491536937176e+00
3.378921676076090286e+00 -2.680596006152127675e+00
3.459372192173139737e+00 -2.719685323155858203e+00
3.539822708270189189e+00 -2.729707229039602723e+00
3.620273224367239528e+00 -2.741721270129577892e+00
3.700723740464288980e+00 -2.790060376505763440e+00
3.781174256561339320e+00 -2.799313790652452116e+00
3.861624772658388771e+00 -2.748913557722495682e+00
3.942075288755438223e+00 -2.704358324937420122e+00
4.022525804852488562e+00 -2.668727619121767702e+00
4.102976320949538014e+00 -2.661475790911717265e+00
4.183426837046588354e+00 -2.653222316106627066e+00
4.263877353143637805e+00 -2.647913578880851659e+00
4.344327869240687257e+00 -2.666040134995284028e+00
4.424778385337737596e+00 -2.701848158229164021e+00
4.505228901434787048e+00 -2.734271459235346313e+00
4.585679417531836499e+00 -2.757108435586601125e+00
4.666129933628886839e+00 -2.754946053346103430e+00
4.746580449725936290e+00 -2.753171362247447629e+00
4.827030965822985742e+00 -2.741519763867544590e+00
4.907481481920036082e+00 -2.732526418055023942e+00
4.987931998017085533e+00 -2.721200556101549761e+00
5.068382514114135873e+00 -2.694253774893868414e+00
5.148833030211185324e+00 -2.671498541481511779e+00
5.229283546308234776e+00 -2.667242251207678549e+00
5.309734062405285115e+00 -2.671090313912386272e+00
5.390184578502334567e+00 -2.652619319734583758e+00
5.470635094599384018e+00 -2.615667675474598663e+00
5.551085610696433470e+00 -2.586693370228702271e+00
5.631536126793483810e+00 -2.574667917002709583e+00
5.711986642890533261e+00 -2.583425234011309968e+00
5.792437158987582713e+00 -2.605286808364925655e+00
5.872887675084633052e+00 -2.640869285130488908e+00
5.953338191181682504e+00 -2.674550827249170037e+00
6.033788707278731955e+00 -2.698751138721154685e+00
6.114239223375781407e+00 -2.706797355021440143e+00
6.194689739472831747e+00 -2.714251620455584213e+00
6.275140255569881198e+00 -2.696543049795061542e+00
6.355590771666931538e+00 -2.666348426845200681e+00
6.436041287763980989e+00 -2.670705889116824050e+00
6.516491803861030441e+00 -2.674327319514054668e+00
6.596942319958079892e+00 -2.671076439713024442e+00
6.677392836055131120e+00 -2.656272705020751967e+00
6.757843352152180572e+00 -2.670322523441696738e+00
6.838293868249230023e+00 -2.685002204102713730e+00
6.918744384346279475e+00 -2.687713357475203235e+00
6.999194900443328926e+00 -2.676821940675679468e+00
7.079645416540378378e+00 -2.700403157248505437e+00
7.160095932637429605e+00 -2.732826689569816114e+00
7.240546448734479057e+00 -2.716182952236719572e+00
7.320996964831528508e+00 -2.697971883484737710e+00
7.401447480928577960e+00 -2.693050960539064675e+00
7.481897997025627411e+00 -2.689528648565467694e+00
7.562348513122678639e+00 -2.697601633486056194e+00
7.642799029219728091e+00 -2.720444545755483556e+00
7.723249545316777542e+00 -2.768201928293378078e+00
7.803700061413826994e+00 -2.782252758786039948e+00
7.884150577510876445e+00 -2.772912830717325416e+00
7.964601093607927673e+00 -2.760870063882193026e+00
8.045051609704977125e+00 -2.757114442741662508e+00
8.125502125802025688e+00 -2.747695207159129183e+00
8.205952641899076028e+00 -2.739292283494061397e+00
8.286403157996124591e+00 -2.724223167299633097e+00
8.366853674093176707e+00 -2.714468393225355936e+00
8.447304190190225270e+00 -2.718589241305145343e+00
8.527754706287275610e+00 -2.721147854994331095e+00
8.608205222384324173e+00 -2.729538930457766632e+00
8.688655738481374513e+00 -2.746628767250785863e+00
8.769106254578423076e+00 -2.767187671621801570e+00
8.849556770675475192e+00 -2.763690371565324266e+00
8.930007286772523756e+00 -2.774521482186019128e+00
9.010457802869574095e+00 -2.797703255465486816e+00
9.090908318966622659e+00 -2.811477539473074660e+00
9.171358835063672998e+00 -2.806067897942076339e+00
9.251809351160723338e+00 -2.798515504875962456e+00
9.332259867257773678e+00 -2.812182058302770127e+00
9.412710383354822241e+00 -2.795361881717463248e+00
9.493160899451872581e+00 -2.758773188189683534e+00
9.573611415548921144e+00 -2.724487001398649966e+00
9.654061931645971484e+00 -2.719503271018790524e+00
9.734512447743021823e+00 -2.756462751211247841e+00
9.814962963840072163e+00 -2.795156827216134232e+00
9.895413479937120727e+00 -2.833116633289363140e+00
9.975863996034171066e+00 -2.871429385096055054e+00
1.005631451213121963e+01 -2.870800625152946761e+00
1.013676502822827175e+01 -2.857281832122745779e+00
1.021721554432532031e+01 -2.868937606856780231e+00
1.029766606042237065e+01 -2.874015744435965303e+00
