0.000000000000000000e+00 -1.549019599857431873e-01
8.045051609704977069e-02 -2.032136308185367446e-01
1.609010321940995414e-01 -5.889160939712385634e-01
2.413515482911492982e-01 -1.260726358301611949e+00
3.218020643881990828e-01 -1.294415339328555570e+00
4.022525804852488118e-01 -1.311560344565533054e+00
4.827030965822985964e-01 -1.487239651868095258e+00
5.631536126793483810e-01 -1.792108966916472701e+00
6.436041287763981655e-01 -2.071764971032999281e+00
7.240546448734478391e-01 -2.364828045809773904e+00
8.045051609704976237e-01 -2.606117878696946555e+00
8.849556770675472972e-01 -2.759376761088168983e+00
9.654061931645971928e-01 -2.801800981953545211e+00
1.045856709261647088e+00 -2.786301919118248094e+00
1.126307225358696762e+00 -2.837009459913550025e+00
1.206757741455746435e+00 -2.867162678876559845e+00
1.287208257552796331e+00 -2.848530903038875017e+00
1.367658773649846005e+00 -2.891280283805603979e+00
1.448109289746895678e+00 -2.943020216197318906e+00
1.528559805843945352e+00 -2.879224674714374377e+00
1.609010321940995247e+00 -2.753760474593747176e+00
1.689460838038045143e+00 -2.653971357006710718e+00
1.769911354135094594e+00 -2.621730441448657967e+00
1.850361870232144490e+00 -2.641513770208414602e+00
1.930812386329194386e+00 -2.660887425117166583e+00
2.011262902426244281e+00 -2.635547239422872945e+00
2.091713418523294177e+00 -2.616538921491334158e+00
2.172163934620343628e+00 -2.573804172005464963e+00
2.252614450717393524e+00 -2.556685295688023718e+00
2.333064966814443419e+00 -2.615994071848143143e+00
2.413515482911492871e+00 -2.691956859032190064e+00
2.493965999008542767e+00 -2.719269864194356678e+00
2.574416515105592662e+00 -2.682207359806127123e+00
2.654867031202642558e+00 -2.631221740208461668e+00
2.735317547299692009e+00 -2.603864233539630035e+00
2.815768063396741905e+00 -2.637259355656961901e+00
2.896218579493791356e+00 -2.666528918755725286e+00
2.976669095590841252e+00 -2.659967013463229168e+00
3.057119611687890703e+00 -2.638801420394228270e+00
3.137570127784940599e+00 -2.641469703023243021e+00
3.218020643881990495e+00 -2.636086059096508727e+00
3.298471159979039946e+00 -2.637669091193261206e+00
3.378921676076090286e+00 -2.629192739199107898e+00
3.459372192173139737e+00 -2.602546210161586604e+00
3.539822708270189189e+00 -2.584325925433709870e+00
3.620273224367239528e+00 -2.565102220342841299e+00
3.700723740464288980e+00 -2.588179719832247372e+00
3.781174256561339320e+00 -2.608580133493619169e+00
3.861624772658388771e+00 -2.617106559136819666e+00
3.942075288755438223e+00 -2.615984507351227339e+00
4.022525804852488562e+00 -2.651657799248568370e+00
4.102976320949538014e+00 -2.709179402385968771e+00
4.183426837046588354e+00 -2.713543036649675777e+00
4.263877353143637805e+00 -2.709419432846214892e+00
4.344327869240687257e+00 -2.740687119466469035e+00
4.424778385337737596e+00 -2.734885517993670856e+00
4.505228901434787048e+00 -2.695929344214361922e+00
4.585679417531836499e+00 -2.683595621821605715e+00
4.666129933628886839e+00 -2.683470964302466122e+00
4.746580449725936290e+00 -2.687015175716374493e+00
4.827030965822985742e+00 -2.660668969382254723e+00
4.907481481920036082e+00 -2.649568770562015452e+00
4.987931998017085533e+00 -2.665405951295291676e+00
5.068382514114135873e+00 -2.712349610678630896e+00
5.148833030211185324e+00 -2.745304612568819635e+00
5.229283546308234776e+00 -2.720755787590698915e+00
5.309734062405285115e+00 -2.676915192446295499e+00
5.390184578502334567e+00 -2.674024684745911706e+00
5.470635094599384018e+00 -2.673405589296070417e+00
5.551085610696433470e+00 -2.661377856019051524e+00
5.631536126793483810e+00 -2.661844557165682801e+00
5.711986642890533261e+00 -2.666562960791591941e+00
5.792437158987582713e+00 -2.676182906016807639e+00
5.872887675084633052e+00 -2.666886744097076711e+00
5.953338191181682504e+00 -2.677570560596870930e+00
6.033788707278731955e+00 -2.692632921005558622e+00
6.114239223375781407e+00 -2.742644307602636999e+00
6.194689739472831747e+00 -2.783254836048258074e+00
6.275140255569881198e+00 -2.769073059083391186e+00
6.355590771666931538e+00 -2.733075875440266866e+00
6.436041287763980989e+00 -2.701340775008018724e+00
6.516491803861030441e+00 -2.683076231426740677e+00
6.596942319958079892e+00 -2.678828018883551820e+00
6.677392836055131120e+00 -2.690124856219987315e+00
6.757843352152180572e+00 -2.692801319098868884e+00
6.838293868249230023e+00 -2.704750177277762013e+00
6.918744384346279475e+00 -2.725153206845497778e+00
6.999194900443328926e+00 -2.741009865360235942e+00
7.079645416540378378e+00 -2.737541027490592693e+00
7.160095932637429605e+00 -2.757754388796522793e+00
7.240546448734479057e+00 -2.746227479924267190e+00
7.320996964831528508e+00 -2.716557599169304282e+00
7.401447480928577960e+00 -2.716305692927662108e+00
7.481897997025627411e+00 -2.741609919573129162e+00
7.562348513122678639e+00 -2.734714318397971411e+00
7.642799029219728091e+00 -2.719520252296514506e+00
7.723249545316777542e+00 -2.720914626947597004e+00
7.803700061413826994e+00 -2.747050030834064849e+00
7.884150577510876445e+00 -2.787583683678153346e+00
7.964601093607927673e+00 -2.805689527265624594e+00
8.045051609704977125e+00 -2.766808755548676224e+00
8.125502125802025688e+00 -2.733856519674002339e+00
8.205952641899076028e+00 -2.725264853645307017e+00
8.286403157996124591e+00 -2.753976013285402313e+00
8.366853674093176707e+00 -2.788259084738309301e+00
8.447304190190225270e+00 -2.763304494137132750e+00
8.527754706287275610e+00 -2.755025481303087886e+00
8.608205222384324173e+00 -2.807696554036030356e+00
8.688655738481374513e+00 -2.830247461077112447e+00
8.769106254578423076e+00 -2.802430468347465897e+00
8.849556770675475192e+00 -2.779265086239065319e+00
8.930007286772523756e+00 -2.797169843557660851e+00
9.010457802869574095e+00 -2.832632819707693983e+00
9.090908318966622659e+00 -2.849052568366675420e+00
9.171358835063672998e+00 -2.835177775283083790e+00
9.251809351160723338e+00 -2.822120818118873498e+00
9.332259867257773678e+00 -2.807405977092255256e+00
9.412710383354822241e+00 -2.810303808631641864e+00
9.493160899451872581e+00 -2.803401264161153428e+00
9.573611415548921144e+00 -2.794271188837615494e+00
9.654061931645971484e+00 -2.796472512110184105e+00
9.734512447743021823e+00 -2.795398600447557946e+00
9.814962963840072163e+00 -2.790430881705082466e+00
9.895413479937120727e+00 -2.810547604311988579e+00
9.975863996034171066e+00 -2.852925797880669911e+00
1.005631451213121963e+01 -2.860671177712041491e+00
1.013676502822827175e+01 -2.830672351941255105e+00
1.021721554432532031e+01 -2.820864097843811980e+00
1.029766606042237065e+01 -2.824292349928901658e+00
