0.000000000000000000e+00 -1.549019599857431873e-01
8.045051609704977069e-02 -1.799802797964943080e-01
1.609010321940995414e-01 -4.422420161883180989e-01
2.413515482911492982e-01 -9.322920736865518698e-01
3.218020643881990828e-01 -1.373539069202525109e+00
4.022525804852488118e-01 -2.095711121487162210e+00
4.827030965822985964e-01 -3.191463870482967202e+00
5.631536126793483810e-01 -3.401409574515239953e+00
6.436041287763981655e-01 -3.430836793340265700e+00
7.240546448734478391e-01 -3.554396895013953728e+00
8.045051609704976237e-01 -3.684466513863456694e+00
8.849556770675472972e-01 -3.765323157427789003e+00
9.654061931645971928e-01 -3.767074324895363091e+00
1.045856709261647088e+00 -3.809989938763742146e+00
1.126307225358696762e+00 -3.877271827078018873e+00
1.206757741455746435e+00 -3.901059020320471582e+00
1.287208257552796331e+00 -3.874904757644232145e+00
1.367658773649846005e+00 -3.864672308453254157e+00
1.448109289746895678e+00 -3.780538899779049888e+00
1.528559805843945352e+00 -3.699120969853977314e+00
1.609010321940995247e+00 -3.634420858827567713e+00
1.689460838038045143e+00 -3.608333878925652272e+00
1.769911354135094594e+00 -3.597391946705411847e+00
1.850361870232144490e+00 -3.572133797976450253e+00
1.930812386329194386e+00 -3.400640809353210336e+00
2.011262902426244281e+00 -3.271662073229827161e+00
2.091713418523294177e+00 -3.190031843666932154e+00
2.172163934620343628e+00 -3.185733151898995974e+00
2.252614450717393524e+00 -3.216597009163337351e+00
2.333064966814443419e+00 -3.283176224785461894e+00
2.413515482911492871e+00 -3.330589976982032852e+00
2.493965999008542767e+00 -3.379079161057761738e+00
2.574416515105592662e+00 -3.396352984614664283e+00
2.654867031202642558e+00 -3.387072817137533942e+00
2.735317547299692009e+00 -3.384891184456460866e+00
2.815768063396741905e+00 -3.397675223122960997e+00
2.896218579493791356e+00 -3.371867949256759811e+00
2.976669095590841252e+00 -3.352161706845130595e+00
3.057119611687890703e+00 -3.364057085434768002e+00
3.137570127784940599e+00 -3.379152262924317363e+00
3.218020643881990495e+00 -3.345856508971607024e+00
3.298471159979039946e+00 -3.333036835444149748e+00
3.378921676076090286e+00 -3.328433270424890456e+00
3.459372192173139737e+00 -3.334685522986641004e+00
3.539822708270189189e+00 -3.319659997393255235e+00
3.620273224367239528e+00 -3.280092401275441549e+00
3.700723740464288980e+00 -3.276756390950140485e+00
3.781174256561339320e+00 -3.285987562221941438e+00
3.861624772658388771e+00 -3.305069759124847018e+00
3.942075288755438223e+00 -3.336831505600268422e+00
4.022525804852488562e+00 -3.406020155055113019e+00
4.102976320949538014e+00 -3.425693381867018772e+00
4.183426837046588354e+00 -3.401502075866478236e+00
4.263877353143637805e+00 -3.385294852962271062e+00
4.344327869240687257e+00 -3.382165375009026143e+00
4.424778385337737596e+00 -3.392921036690782266e+00
4.505228901434787048e+00 -3.404901079542188569e+00
4.585679417531836499e+00 -3.437561133445203421e+00
4.666129933628886839e+00 -3.437567382642575442e+00
4.746580449725936290e+00 -3.426326140300470779e+00
4.827030965822985742e+00 -3.352558244298363910e+00
4.907481481920036082e+00 -3.302125354323139916e+00
4.987931998017085533e+00 -3.279334077023092764e+00
5.068382514114135873e+00 -3.305716234181081514e+00
5.148833030211185324e+00 -3.362103361068671692e+00
5.229283546308234776e+00 -3.395323837918024612e+00
5.309734062405285115e+00 -3.406747246120815475e+00
5.390184578502334567e+00 -3.413890775179610149e+00
5.470635094599384018e+00 -3.420069835865864771e+00
5.551085610696433470e+00 -3.387227150296338696e+00
5.631536126793483810e+00 -3.362571024944653431e+00
5.711986642890533261e+00 -3.351715059933544349e+00
5.792437158987582713e+00 -3.351040814865621442e+00
5.872887675084633052e+00 -3.381199596773842408e+00
5.953338191181682504e+00 -3.382942416030286115e+00
6.033788707278731955e+00 -3.356450961502223773e+00
6.114239223375781407e+00 -3.345755776392020486e+00
6.194689739472831747e+00 -3.350620587146611040e+00
6.275140255569881198e+00 -3.347414673116429373e+00
6.355590771666931538e+00 -3.333774427691531539e+00
6.436041287763980989e+00 -3.320170039243378834e+00
6.516491803861030441e+00 -3.325477676766109614e+00
6.596942319958079892e+00 -3.358240021332888237e+00
6.677392836055131120e+00 -3.381272148596078608e+00
6.757843352152180572e+00 -3.400070579852055186e+00
6.838293868249230023e+00 -3.418343946353874507e+00
6.918744384346279475e+00 -3.424390449928769176e+00
6.999194900443328926e+00 -3.409713287354844802e+00
7.079645416540378378e+00 -3.374611101326999485e+00
7.160095932637429605e+00 -3.383391882640482073e+00
7.240546448734479057e+00 -3.383546616582881139e+00
7.320996964831528508e+00 -3.354519386961761551e+00
7.401447480928577960e+00 -3.327442066525018394e+00
7.481897997025627411e+00 -3.338700931992806265e+00
7.562348513122678639e+00 -3.362085831861165275e+00
7.642799029219728091e+00 -3.395825924516914007e+00
7.723249545316777542e+00 -3.415443062659911710e+00
7.803700061413826994e+00 -3.446008114649789178e+00
7.884150577510876445e+00 -3.469384554021457401e+00
7.964601093607927673e+00 -3.468279246233507696e+00
8.045051609704977125e+00 -3.445384119386492916e+00
8.125502125802025688e+00 -3.436114067549831397e+00
8.205952641899076028e+00 -3.444524740572258992e+00
8.286403157996124591e+00 -3.451137187118960448e+00
8.366853674093176707e+00 -3.443688387150015018e+00
8.447304190190225270e+00 -3.425026010596580406e+00
8.527754706287275610e+00 -3.413436664303014734e+00
8.608205222384324173e+00 -3.402829431061373811e+00
8.688655738481374513e+00 -3.385644812290741879e+00
8.769106254578423076e+00 -3.390727703112375924e+00
8.849556770675475192e+00 -3.413884193507272791e+00
8.930007286772523756e+00 -3.445381430882948681e+00
9.010457802869574095e+00 -3.469068069446821667e+00
9.090908318966622659e+00 -3.486785338745392870e+00
9.171358835063672998e+00 -3.504095300821679970e+00
9.251809351160723338e+00 -3.494442279608165780e+00
9.332259867257773678e+00 -3.471917260291414120e+00
9.412710383354822241e+00 -3.453402447539716924e+00
9.493160899451872581e+00 -3.449757196000155623e+00
9.573611415548921144e+00 -3.449942592149803033e+00
9.654061931645971484e+00 -3.469290776954070399e+00
9.734512447743021823e+00 -3.479974752581612485e+00
9.814962963840072163e+00 -3.465077226247246678e+00
9.895413479937120727e+00 -3.445952841081949103e+00
9.975863996034171066e+00 -3.452703469141039427e+00
1.005631451213121963e+01 -3.463768532503519015e+00
1.013676502822827175e+01 -3.481239682188733475e+00
1.021721554432532031e+01 -3.501590966925402171e+00
1.029766606042237065e+01 -3.493947645098672172e+00
