0.000000000000000000e+00 -1.549019599857431873e-01
8.045051609704977069e-02 -1.913577591253572130e-01
1.609010321940995414e-01 -5.477674705093881213e-01
2.413515482911492982e-01 -1.775453139672388936e+00
3.218020643881990828e-01 -2.460411312474640066e+00
4.022525804852488118e-01 -2.797642998011988791e+00
4.827030965822985964e-01 -3.130892008585273167e+00
5.631536126793483810e-01 -3.360354680237229275e+00
6.436041287763981655e-01 -3.475426359589535164e+00
7.240546448734478391e-01 -3.629454895399266245e+00
8.045051609704976237e-01 -3.666858828979746576e+00
8.849556770675472972e-01 -3.746436854281056661e+00
9.654061931645971928e-01 -3.852440392207054920e+00
1.045856709261647088e+00 -3.971750644404886899e+00
1.126307225358696762e+00 -4.012559280876286216e+00
1.206757741455746435e+00 -3.985699108309014083e+00
1.287208257552796331e+00 -3.880779649689336086e+00
1.367658773649846005e+00 -3.762661699764748846e+00
1.448109289746895678e+00 -3.710824224525163917e+00
1.528559805843945352e+00 -3.710009696431398218e+00
1.609010321940995247e+00 -3.705480137856085321e+00
1.689460838038045143e+00 -3.665909497755834412e+00
1.769911354135094594e+00 -3.607388109613737903e+00
1.850361870232144490e+00 -3.533033367677782088e+00
1.930812386329194386e+00 -3.401668283409320814e+00
2.011262902426244281e+00 -3.299832052615737865e+00
2.091713418523294177e+00 -3.241817929690956834e+00
2.172163934620343628e+00 -3.218483558785212306e+00
2.252614450717393524e+00 -3.229245437272454389e+00
2.333064966814443419e+00 -3.253641106495512414e+00
2.413515482911492871e+00 -3.254011936192930055e+00
2.493965999008542767e+00 -3.286297406073496852e+00
2.574416515105592662e+00 -3.292465828512546988e+00
2.654867031202642558e+00 -3.284920188888831749e+00
2.735317547299692009e+00 -3.305763660687366823e+00
2.815768063396741905e+00 -3.381791341984462296e+00
2.896218579493791356e+00 -3.426782800942465457e+00
2.976669095590841252e+00 -3.425594243299193931e+00
3.057119611687890703e+00 -3.424717463913572235e+00
3.137570127784940599e+00 -3.437247428015806072e+00
3.218020643881990495e+00 -3.446046947586770326e+00
3.298471159979039946e+00 -3.420473910804652906e+00
3.378921676076090286e+00 -3.373130405977230240e+00
3.459372192173139737e+00 -3.306553650591435911e+00
3.539822708270189189e+00 -3.304272328526864477e+00
3.620273224367239528e+00 -3.346367535990620201e+00
3.700723740464288980e+00 -3.367766599123543703e+00
3.781174256561339320e+00 -3.338154447678761461e+00
3.861624772658388771e+00 -3.293962803623707192e+00
3.942075288755438223e+00 -3.241984187701037357e+00
4.022525804852488562e+00 -3.247809014955091111e+00
4.102976320949538014e+00 -3.301758397812441626e+00
4.183426837046588354e+00 -3.316199799525624492e+00
4.263877353143637805e+00 -3.321949258297381302e+00
4.344327869240687257e+00 -3.359086499806396731e+00
4.424778385337737596e+00 -3.409712478264224522e+00
4.505228901434787048e+00 -3.420437772799019172e+00
4.585679417531836499e+00 -3.400375414764928106e+00
4.666129933628886839e+00 -3.380643127212213273e+00
4.746580449725936290e+00 -3.359175344321062795e+00
4.827030965822985742e+00 -3.323253824657124600e+00
4.907481481920036082e+00 -3.293264434025214626e+00
4.987931998017085533e+00 -3.285008413194069998e+00
5.068382514114135873e+00 -3.316398416119082704e+00
5.148833030211185324e+00 -3.350707306257168838e+00
5.229283546308234776e+00 -3.386815538095416578e+00
5.309734062405285115e+00 -3.408682777774800332e+00
5.390184578502334567e+00 -3.394935831453065767e+00
5.470635094599384018e+00 -3.357425744135790868e+00
5.551085610696433470e+00 -3.337353508643347233e+00
5.631536126793483810e+00 -3.348712163891785831e+00
5.711986642890533261e+00 -3.386265868311884031e+00
5.792437158987582713e+00 -3.391997312516924268e+00
5.872887675084633052e+00 -3.385599106793349744e+00
5.953338191181682504e+00 -3.384965411679141667e+00
6.033788707278731955e+00 -3.385959626758135776e+00
6.114239223375781407e+00 -3.350356400694442627e+00
6.194689739472831747e+00 -3.321070103356329017e+00
6.275140255569881198e+00 -3.321394926404802828e+00
6.355590771666931538e+00 -3.347326871626591149e+00
6.436041287763980989e+00 -3.364235810688351425e+00
6.516491803861030441e+00 -3.348410746861432141e+00
6.596942319958079892e+00 -3.337822494982539467e+00
6.677392836055131120e+00 -3.343620857821484105e+00
6.757843352152180572e+00 -3.361805324733502243e+00
6.838293868249230023e+00 -3.362145979947377850e+00
6.918744384346279475e+00 -3.343063917784439010e+00
6.999194900443328926e+00 -3.331434777871093100e+00
7.079645416540378378e+00 -3.342318844259396293e+00
7.160095932637429605e+00 -3.375234103734833457e+00
7.240546448734479057e+00 -3.416124378993168786e+00
7.320996964831528508e+00 -3.445740358605495768e+00
7.401447480928577960e+00 -3.435765062258500091e+00
7.481897997025627411e+00 -3.426514101978261895e+00
7.562348513122678639e+00 -3.403561795483814212e+00
7.642799029219728091e+00 -3.390889613999875429e+00
7.723249545316777542e+00 -3.395868345894013096e+00
7.803700061413826994e+00 -3.415967887451547114e+00
7.884150577510876445e+00 -3.442758713162320294e+00
7.964601093607927673e+00 -3.465930085371811131e+00
8.045051609704977125e+00 -3.460755899032506022e+00
8.125502125802025688e+00 -3.437908370700130334e+00
8.205952641899076028e+00 -3.424964692008434231e+00
8.286403157996124591e+00 -3.429442304743308689e+00
8.366853674093176707e+00 -3.444958400348289373e+00
8.447304190190225270e+00 -3.466369667495625695e+00
8.527754706287275610e+00 -3.486428533768398452e+00
8.608205222384324173e+00 -3.478054744573542578e+00
8.688655738481374513e+00 -3.441535972677807642e+00
8.769106254578423076e+00 -3.414304474653820698e+00
8.849556770675475192e+00 -3.410636653417163267e+00
8.930007286772523756e+00 -3.428410464643187439e+00
9.010457802869574095e+00 -3.463314510754602615e+00
9.090908318966622659e+00 -3.520183782520096560e+00
9.171358835063672998e+00 -3.546130680530164447e+00
9.251809351160723338e+00 -3.543305177802767769e+00
9.332259867257773678e+00 -3.525024613356225966e+00
9.412710383354822241e+00 -3.512158118406878859e+00
9.493160899451872581e+00 -3.510416406772356446e+00
9.573611415548921144e+00 -3.509599233193318568e+00
9.654061931645971484e+00 -3.466149782846632554e+00
9.734512447743021823e+00 -3.454159217259277437e+00
9.814962963840072163e+00 -3.470402783434466176e+00
9.895413479937120727e+00 -3.506851956477289534e+00
9.975863996034171066e+00 -3.514349320287918577e+00
1.005631451213121963e+01 -3.494424595401494749e+00
1.013676502822827175e+01 -3.476359979823760771e+00
1.021721554432532031e+01 -3.477331454610930184e+00
1.029766606042237065e+01 -3.494705929034909619e+00
