0.000000000000000000e+00 -1.549019599857431873e-01
8.045051609704977069e-02 -1.957365474373875813e-01
1.609010321940995414e-01 -5.188114762467291863e-01
2.413515482911492982e-01 -1.466094222581769690e+00
3.218020643881990828e-01 -1.967088477007223002e+00
4.022525804852488118e-01 -2.665425251868035250e+00
4.827030965822985964e-01 -3.304882080472097083e+00
5.631536126793483810e-01 -3.220549781028243963e+00
6.436041287763981655e-01 -3.224794602752306893e+00
7.240546448734478391e-01 -3.369762720546124690e+00
8.045051609704976237e-01 -3.633336994272115650e+00
8.849556770675472972e-01 -3.790938727656783414e+00
9.654061931645971928e-01 -3.805371624519937601e+00
1.045856709261647088e+00 -3.861839646923369340e+00
1.126307225358696762e+00 -3.902500890959301305e+00
1.206757741455746435e+00 -3.864003965500970583e+00
1.287208257552796331e+00 -3.829448673419744154e+00
1.367658773649846005e+00 -3.826759119071915460e+00
1.448109289746895678e+00 -3.827230135781511056e+00
1.528559805843945352e+00 -3.791063562408180765e+00
1.609010321940995247e+00 -3.720049948588581401e+00
1.689460838038045143e+00 -3.645241416806951573e+00
1.769911354135094594e+00 -3.582434412310466776e+00
1.850361870232144490e+00 -3.531891076196607138e+00
1.930812386329194386e+00 -3.463359321663225021e+00
2.011262902426244281e+00 -3.353608399596781808e+00
2.091713418523294177e+00 -3.245661238303513940e+00
2.172163934620343628e+00 -3.229470418959846434e+00
2.252614450717393524e+00 -3.283340911322925937e+00
2.333064966814443419e+00 -3.342574058130798775e+00
2.413515482911492871e+00 -3.347669027042908141e+00
2.493965999008542767e+00 -3.331201098557159845e+00
2.574416515105592662e+00 -3.254484025671656511e+00
2.654867031202642558e+00 -3.203554641480061527e+00
2.735317547299692009e+00 -3.243964477794494261e+00
2.815768063396741905e+00 -3.326425942029173743e+00
2.896218579493791356e+00 -3.356553331237097204e+00
2.976669095590841252e+00 -3.339465354484680848e+00
3.057119611687890703e+00 -3.352306972886273329e+00
3.137570127784940599e+00 -3.368467757389521644e+00
3.218020643881990495e+00 -3.378596306389616277e+00
3.298471159979039946e+00 -3.344100146458981460e+00
3.378921676076090286e+00 -3.298422663678942435e+00
3.459372192173139737e+00 -3.268209133095612451e+00
3.539822708270189189e+00 -3.275430949516059620e+00
3.620273224367239528e+00 -3.307875069876617058e+00
3.700723740464288980e+00 -3.349082171760281668e+00
3.781174256561339320e+00 -3.377943793735133315e+00
3.861624772658388771e+00 -3.390270413994046272e+00
3.942075288755438223e+00 -3.398002725158233428e+00
4.022525804852488562e+00 -3.394855705451806038e+00
4.102976320949538014e+00 -3.383949084782435168e+00
4.183426837046588354e+00 -3.376112857990729577e+00
4.263877353143637805e+00 -3.391233439351614365e+00
4.344327869240687257e+00 -3.408873350858416362e+00
4.424778385337737596e+00 -3.385576640729437869e+00
4.505228901434787048e+00 -3.349856614418635470e+00
4.585679417531836499e+00 -3.348177644359357608e+00
4.666129933628886839e+00 -3.369339129716397707e+00
4.746580449725936290e+00 -3.345031124662477762e+00
4.827030965822985742e+00 -3.321155690200991550e+00
4.907481481920036082e+00 -3.318021429668606803e+00
4.987931998017085533e+00 -3.340785605920905788e+00
5.068382514114135873e+00 -3.374082069913912463e+00
5.148833030211185324e+00 -3.384598002116734783e+00
5.229283546308234776e+00 -3.372147706420017155e+00
5.309734062405285115e+00 -3.353276798629822419e+00
5.390184578502334567e+00 -3.348031422787759670e+00
5.470635094599384018e+00 -3.366103568640967936e+00
5.551085610696433470e+00 -3.372377888494652698e+00
5.631536126793483810e+00 -3.375992514897762309e+00
5.711986642890533261e+00 -3.364949552151760503e+00
5.792437158987582713e+00 -3.360791788273679082e+00
5.872887675084633052e+00 -3.389685910673772895e+00
5.953338191181682504e+00 -3.406991859650156940e+00
6.033788707278731955e+00 -3.392620474853480061e+00
6.114239223375781407e+00 -3.362228225010963634e+00
6.194689739472831747e+00 -3.355903727161197114e+00
6.275140255569881198e+00 -3.391719505093688802e+00
6.355590771666931538e+00 -3.431908903186699167e+00
6.436041287763980989e+00 -3.437812258721195668e+00
6.516491803861030441e+00 -3.397660624103596483e+00
6.596942319958079892e+00 -3.385049890256149219e+00
6.677392836055131120e+00 -3.399243096950144150e+00
6.757843352152180572e+00 -3.418796712341117594e+00
6.838293868249230023e+00 -3.451336881255082645e+00
6.918744384346279475e+00 -3.455644760072653643e+00
6.999194900443328926e+00 -3.428980456258637677e+00
7.079645416540378378e+00 -3.407783648072674421e+00
7.160095932637429605e+00 -3.401283284747154578e+00
7.240546448734479057e+00 -3.397364185461613673e+00
7.320996964831528508e+00 -3.394108062710704754e+00
7.401447480928577960e+00 -3.398759432596818009e+00
7.481897997025627411e+00 -3.398780529816614937e+00
7.562348513122678639e+00 -3.397485495820818269e+00
7.642799029219728091e+00 -3.394471885668389088e+00
7.723249545316777542e+00 -3.404746645976496566e+00
7.803700061413826994e+00 -3.415571082579462292e+00
7.884150577510876445e+00 -3.420989577061224640e+00
7.964601093607927673e+00 -3.408956741465068774e+00
8.045051609704977125e+00 -3.401761679553009454e+00
8.125502125802025688e+00 -3.404952683060741059e+00
8.205952641899076028e+00 -3.413219456111999062e+00
8.286403157996124591e+00 -3.414042158872173438e+00
8.366853674093176707e+00 -3.414988491295906314e+00
8.447304190190225270e+00 -3.400688024264397313e+00
8.527754706287275610e+00 -3.394838917235860620e+00
8.608205222384324173e+00 -3.431501088652825882e+00
8.688655738481374513e+00 -3.433421449374995493e+00
8.769106254578423076e+00 -3.424494359089231388e+00
8.849556770675475192e+00 -3.437081222155748961e+00
8.930007286772523756e+00 -3.484002737353012247e+00
9.010457802869574095e+00 -3.506333894438764531e+00
9.090908318966622659e+00 -3.479509773266533657e+00
9.171358835063672998e+00 -3.437824123473546933e+00
9.251809351160723338e+00 -3.432090792820118974e+00
9.332259867257773678e+00 -3.455896619515014923e+00
9.412710383354822241e+00 -3.480890083166298776e+00
9.493160899451872581e+00 -3.463962961141187069e+00
9.573611415548921144e+00 -3.421179192693787119e+00
9.654061931645971484e+00 -3.426187687698283302e+00
9.734512447743021823e+00 -3.447948764364391128e+00
9.814962963840072163e+00 -3.452477116495147325e+00
9.895413479937120727e+00 -3.465110153233728507e+00
9.975863996034171066e+00 -3.471222813966748255e+00
1.005631451213121963e+01 -3.485661990835998925e+00
1.013676502822827175e+01 -3.521094062530761182e+00
1.021721554432532031e+01 -3.540256737972999446e+00
1.029766606042237065e+01 -3.532384486581047423e+00
