0.000000000000000000e+00 -1.549019599857431873e-01
8.045051609704977069e-02 -2.075101219281484388e-01
1.609010321940995414e-01 -5.667104203674911966e-01
2.413515482911492982e-01 -1.668278972123489634e+00
3.218020643881990828e-01 -2.152747276647996699e+00
4.022525804852488118e-01 -2.697324007715695249e+00
4.827030965822985964e-01 -3.137941540223862624e+00
5.631536126793483810e-01 -3.228355543112895631e+00
6.436041287763981655e-01 -3.362418418119154317e+00
7.240546448734478391e-01 -3.582771783118691822e+00
8.045051609704976237e-01 -3.720777473523313450e+00
8.849556770675472972e-01 -3.785029244763362666e+00
9.654061931645971928e-01 -3.789669354501698173e+00
1.045856709261647088e+00 -3.809264789674122298e+00
1.126307225358696762e+00 -3.861202312812412440e+00
1.206757741455746435e+00 -3.912761913283663073e+00
1.287208257552796331e+00 -3.880508547247639495e+00
1.367658773649846005e+00 -3.795401474378496953e+00
1.448109289746895678e+00 -3.726069223411129450e+00
1.528559805843945352e+00 -3.635747879869932753e+00
1.609010321940995247e+00 -3.504112520823266408e+00
1.689460838038045143e+00 -3.454894669679488217e+00
1.769911354135094594e+00 -3.413799891824029320e+00
1.850361870232144490e+00 -3.373873690642082313e+00
1.930812386329194386e+00 -3.385923411185623344e+00
2.011262902426244281e+00 -3.393610082167481501e+00
2.091713418523294177e+00 -3.383771393359000790e+00
2.172163934620343628e+00 -3.403382730993413485e+00
2.252614450717393524e+00 -3.407799362585033798e+00
2.333064966814443419e+00 -3.326013581397326835e+00
2.413515482911492871e+00 -3.266730902747311038e+00
2.493965999008542767e+00 -3.252464564852314943e+00
2.574416515105592662e+00 -3.283782098525548587e+00
2.654867031202642558e+00 -3.266836960973399595e+00
2.735317547299692009e+00 -3.258771332163169276e+00
2.815768063396741905e+00 -3.287263685837203742e+00
2.896218579493791356e+00 -3.324265215211223978e+00
2.976669095590841252e+00 -3.319770149181321628e+00
3.057119611687890703e+00 -3.309806688399249630e+00
3.137570127784940599e+00 -3.302392927741781836e+00
3.218020643881990495e+00 -3.319003266168150112e+00
3.298471159979039946e+00 -3.372792626557073792e+00
3.378921676076090286e+00 -3.447395500699614423e+00
3.459372192173139737e+00 -3.455911560349295364e+00
3.539822708270189189e+00 -3.390093875336277041e+00
3.620273224367239528e+00 -3.337790330627732338e+00
3.700723740464288980e+00 -3.312988337385494031e+00
3.781174256561339320e+00 -3.318087444760274174e+00
3.861624772658388771e+00 -3.329669565234182116e+00
3.942075288755438223e+00 -3.340214666587232539e+00
4.022525804852488562e+00 -3.338513697390427026e+00
4.102976320949538014e+00 -3.296096858321936107e+00
4.183426837046588354e+00 -3.274133048472147145e+00
4.263877353143637805e+00 -3.323148299582877829e+00
4.344327869240687257e+00 -3.386976309672183216e+00
4.424778385337737596e+00 -3.445717609982324792e+00
4.505228901434787048e+00 -3.454930466780798515e+00
4.585679417531836499e+00 -3.417080773125675819e+00
4.666129933628886839e+00 -3.358065145878259994e+00
4.746580449725936290e+00 -3.303859666045322108e+00
4.827030965822985742e+00 -3.295086475235114776e+00
4.907481481920036082e+00 -3.339734753624568953e+00
4.987931998017085533e+00 -3.350151808022287625e+00
5.068382514114135873e+00 -3.339879770033495898e+00
5.148833030211185324e+00 -3.345940668483479818e+00
5.229283546308234776e+00 -3.387522942603200082e+00
5.309734062405285115e+00 -3.396281098470371962e+00
5.390184578502334567e+00 -3.374319911080183587e+00
5.470635094599384018e+00 -3.354349439802972288e+00
5.551085610696433470e+00 -3.349682293474321781e+00
5.631536126793483810e+00 -3.361572632535505090e+00
5.711986642890533261e+00 -3.389647396357267528e+00
5.792437158987582713e+00 -3.391374849215425424e+00
5.872887675084633052e+00 -3.365278453895653499e+00
5.953338191181682504e+00 -3.384181485156088076e+00
6.033788707278731955e+00 -3.394610765882646763e+00
6.114239223375781407e+00 -3.383520786156232418e+00
6.194689739472831747e+00 -3.370154571692375534e+00
6.275140255569881198e+00 -3.383766466060523115e+00
6.355590771666931538e+00 -3.423881195287589385e+00
6.436041287763980989e+00 -3.429724872832387028e+00
6.516491803861030441e+00 -3.404568782823861994e+00
6.596942319958079892e+00 -3.373947513522006059e+00
6.677392836055131120e+00 -3.402539207232085250e+00
6.757843352152180572e+00 -3.433797372305345874e+00
6.838293868249230023e+00 -3.440051975430332920e+00
6.918744384346279475e+00 -3.428349065383413663e+00
6.999194900443328926e+00 -3.392707485117967270e+00
7.079645416540378378e+00 -3.363674595958495495e+00
7.160095932637429605e+00 -3.339565425755372630e+00
7.240546448734479057e+00 -3.361645157187012956e+00
7.320996964831528508e+00 -3.404428277663055447e+00
7.401447480928577960e+00 -3.432281941696862848e+00
7.481897997025627411e+00 -3.436972921482732257e+00
7.562348513122678639e+00 -3.434343589386012585e+00
7.642799029219728091e+00 -3.392044256830423432e+00
7.723249545316777542e+00 -3.387444336681576740e+00
7.803700061413826994e+00 -3.416226298584302157e+00
7.884150577510876445e+00 -3.419525130861926332e+00
7.964601093607927673e+00 -3.418537553543413043e+00
8.045051609704977125e+00 -3.448716757563156321e+00
8.125502125802025688e+00 -3.491314166495383731e+00
8.205952641899076028e+00 -3.493652270146866190e+00
8.286403157996124591e+00 -3.498363406136189901e+00
8.366853674093176707e+00 -3.481486562394284334e+00
8.447304190190225270e+00 -3.450765883550911628e+00
8.527754706287275610e+00 -3.418720584917052996e+00
8.608205222384324173e+00 -3.428594396080141937e+00
8.688655738481374513e+00 -3.435619640107942185e+00
8.769106254578423076e+00 -3.442249402324300434e+00
8.849556770675475192e+00 -3.429201847136005288e+00
8.930007286772523756e+00 -3.425087893278553342e+00
9.010457802869574095e+00 -3.451163929031930255e+00
9.090908318966622659e+00 -3.485571191358773913e+00
9.171358835063672998e+00 -3.516466481540716060e+00
9.251809351160723338e+00 -3.522009737620521275e+00
9.332259867257773678e+00 -3.518531179778494167e+00
9.412710383354822241e+00 -3.510950676350933719e+00
9.493160899451872581e+00 -3.504570762960118824e+00
9.573611415548921144e+00 -3.505976778026687057e+00
9.654061931645971484e+00 -3.512464066509849658e+00
9.734512447743021823e+00 -3.530071253168066026e+00
9.814962963840072163e+00 -3.540094192289193753e+00
9.895413479937120727e+00 -3.544978715154030624e+00
9.975863996034171066e+00 -3.523862122364339378e+00
1.005631451213121963e+01 -3.515184522385781385e+00
1.013676502822827175e+01 -3.499608261062113979e+00
1.021721554432532031e+01 -3.499206165242539246e+00
1.029766606042237065e+01 -3.514996446284747389e+00
