0.000000000000000000e+00 -1.549019599857431873e-01
8.045051609704977069e-02 -2.102126281375018835e-01
1.609010321940995414e-01 -6.202323265518290274e-01
2.413515482911492982e-01 -1.644896096175780364e+00
3.218020643881990828e-01 -2.062911143907718792e+00
4.022525804852488118e-01 -2.744801452680895260e+00
4.827030965822985964e-01 -3.289791901822576747e+00
5.631536126793483810e-01 -3.588748219265189388e+00
6.436041287763981655e-01 -3.782916912110398933e+00
7.240546448734478391e-01 -3.868317864932533379e+00
8.045051609704976237e-01 -3.920241485336849685e+00
8.849556770675472972e-01 -3.967999493948340728e+00
9.654061931645971928e-01 -3.985401273935619049e+00
1.045856709261647088e+00 -3.952841106382718017e+00
1.126307225358696762e+00 -3.890623854114453994e+00
1.206757741455746435e+00 -3.902924548778860636e+00
1.287208257552796331e+00 -3.955948369600972292e+00
1.367658773649846005e+00 -3.915162480418504121e+00
1.448109289746895678e+00 -3.803179678605132619e+00
1.528559805843945352e+00 -3.715539558421982136e+00
1.609010321940995247e+00 -3.644130674317814567e+00
1.689460838038045143e+00 -3.570086055603489683e+00
1.769911354135094594e+00 -3.515703102624967435e+00
1.850361870232144490e+00 -3.464658367002387163e+00
1.930812386329194386e+00 -3.425643348049697945e+00
2.011262902426244281e+00 -3.404623416127315227e+00
2.091713418523294177e+00 -3.344236590158177425e+00
2.172163934620343628e+00 -3.282191103020090761e+00
2.252614450717393524e+00 -3.292617929590996972e+00
2.333064966814443419e+00 -3.325734243173765758e+00
2.413515482911492871e+00 -3.333700844539167818e+00
2.493965999008542767e+00 -3.346053652107087384e+00
2.574416515105592662e+00 -3.348534558654265858e+00
2.654867031202642558e+00 -3.341103073243401944e+00
2.735317547299692009e+00 -3.310001442888348855e+00
2.815768063396741905e+00 -3.306159610247108915e+00
2.896218579493791356e+00 -3.307528047317977560e+00
2.976669095590841252e+00 -3.299853641674891147e+00
3.057119611687890703e+00 -3.279171573062338307e+00
3.137570127784940599e+00 -3.288070363799306506e+00
3.218020643881990495e+00 -3.304255101723038379e+00
3.298471159979039946e+00 -3.324590023411805983e+00
3.378921676076090286e+00 -3.294441841956364581e+00
3.459372192173139737e+00 -3.262271660237177517e+00
3.539822708270189189e+00 -3.291614854993456962e+00
3.620273224367239528e+00 -3.347225161385285475e+00
3.700723740464288980e+00 -3.360558688020994556e+00
3.781174256561339320e+00 -3.329929470861072272e+00
3.861624772658388771e+00 -3.304007829474057800e+00
3.942075288755438223e+00 -3.304609238401205129e+00
4.022525804852488562e+00 -3.308581822139754269e+00
4.102976320949538014e+00 -3.340616562592522154e+00
4.183426837046588354e+00 -3.374788619988654759e+00
4.263877353143637805e+00 -3.379642762670806544e+00
4.344327869240687257e+00 -3.345772066859717508e+00
4.424778385337737596e+00 -3.339909659752101856e+00
4.505228901434787048e+00 -3.334292904154312343e+00
4.585679417531836499e+00 -3.326241897427855143e+00
4.666129933628886839e+00 -3.345015100833398147e+00
4.746580449725936290e+00 -3.357423908673486501e+00
4.827030965822985742e+00 -3.356402171072081053e+00
4.907481481920036082e+00 -3.369195144401542663e+00
4.987931998017085533e+00 -3.356505423350319539e+00
5.068382514114135873e+00 -3.317600299715782963e+00
5.148833030211185324e+00 -3.332329996079287149e+00
5.229283546308234776e+00 -3.355969326102968164e+00
5.309734062405285115e+00 -3.368648139240585593e+00
5.390184578502334567e+00 -3.383530468720348683e+00
5.470635094599384018e+00 -3.410058352732431519e+00
5.551085610696433470e+00 -3.408596795215532715e+00
5.631536126793483810e+00 -3.372070356224521337e+00
5.711986642890533261e+00 -3.353397213540177280e+00
5.792437158987582713e+00 -3.344693998413811542e+00
5.872887675084633052e+00 -3.348152251248503131e+00
5.953338191181682504e+00 -3.319112055329126232e+00
6.033788707278731955e+00 -3.281998341037205780e+00
6.114239223375781407e+00 -3.286210013429950116e+00
6.194689739472831747e+00 -3.322600112786792348e+00
6.275140255569881198e+00 -3.369618853321979302e+00
6.355590771666931538e+00 -3.377719983820238081e+00
6.436041287763980989e+00 -3.369281981156287742e+00
6.516491803861030441e+00 -3.375332194536363239e+00
6.596942319958079892e+00 -3.393015568001052085e+00
6.677392836055131120e+00 -3.394397602015269300e+00
6.757843352152180572e+00 -3.394734618589887454e+00
6.838293868249230023e+00 -3.418743984077453835e+00
6.918744384346279475e+00 -3.432859229374012333e+00
6.999194900443328926e+00 -3.410933949322844327e+00
7.079645416540378378e+00 -3.369982091310501193e+00
7.160095932637429605e+00 -3.386286909503501086e+00
7.240546448734479057e+00 -3.397497397929951646e+00
7.320996964831528508e+00 -3.401087349315918829e+00
7.401447480928577960e+00 -3.397741149743623623e+00
7.481897997025627411e+00 -3.385602826473636195e+00
7.562348513122678639e+00 -3.382585211891167898e+00
7.642799029219728091e+00 -3.374281587117372361e+00
7.723249545316777542e+00 -3.364168091073912681e+00
7.803700061413826994e+00 -3.379078864697739437e+00
7.884150577510876445e+00 -3.418956643856269739e+00
7.964601093607927673e+00 -3.470160267600415072e+00
8.045051609704977125e+00 -3.481510925431302361e+00
8.125502125802025688e+00 -3.467903540867612211e+00
8.205952641899076028e+00 -3.462660874170038205e+00
8.286403157996124591e+00 -3.448624418004526238e+00
8.366853674093176707e+00 -3.431044035761650512e+00
8.447304190190225270e+00 -3.443877943446632894e+00
8.527754706287275610e+00 -3.441292528378671278e+00
8.608205222384324173e+00 -3.450450718186936605e+00
8.688655738481374513e+00 -3.477046570134063153e+00
8.769106254578423076e+00 -3.514135029829301260e+00
8.849556770675475192e+00 -3.522307736579588955e+00
8.930007286772523756e+00 -3.545047676419691207e+00
9.010457802869574095e+00 -3.540086527099918889e+00
9.090908318966622659e+00 -3.524753928929304614e+00
9.171358835063672998e+00 -3.480672228160675452e+00
9.251809351160723338e+00 -3.462134312129427016e+00
9.332259867257773678e+00 -3.482904165130293883e+00
9.412710383354822241e+00 -3.514897934300076354e+00
9.493160899451872581e+00 -3.537529135333730146e+00
9.573611415548921144e+00 -3.530588947704211833e+00
9.654061931645971484e+00 -3.494511532339283466e+00
9.734512447743021823e+00 -3.491724638195900177e+00
9.814962963840072163e+00 -3.496695798015946988e+00
9.895413479937120727e+00 -3.515870565016830263e+00
9.975863996034171066e+00 -3.546039600265328939e+00
1.005631451213121963e+01 -3.561410241593536252e+00
1.013676502822827175e+01 -3.570246402233335115e+00
1.021721554432532031e+01 -3.548585975951035643e+00
1.029766606042237065e+01 -3.531317022303712694e+00
