0.000000000000000000e+00 -1.549019599857431873e-01
8.045051609704977069e-02 -1.984803840714543244e-01
1.609010321940995414e-01 -5.538007757290790423e-01
2.413515482911492982e-01 -1.769317264782534815e+00
3.218020643881990828e-01 -2.541067076494497368e+00
4.022525804852488118e-01 -2.990870653417706304e+00
4.827030965822985964e-01 -3.435889333232516218e+00
5.631536126793483810e-01 -3.589298260380538785e+00
6.436041287763981655e-01 -3.806846943132395467e+00
7.240546448734478391e-01 -3.978164876206965239e+00
8.045051609704976237e-01 -4.084770580095741899e+00
8.849556770675472972e-01 -4.095848119477743410e+00
9.654061931645971928e-01 -4.000434728642228599e+00
1.045856709261647088e+00 -3.888192695447503677e+00
1.126307225358696762e+00 -3.868943595739580577e+00
1.206757741455746435e+00 -3.878855829827354995e+00
1.287208257552796331e+00 -3.877855396399218613e+00
1.367658773649846005e+00 -3.776273387973481999e+00
1.448109289746895678e+00 -3.655072743171288607e+00
1.528559805843945352e+00 -3.608255311530375042e+00
1.609010321940995247e+00 -3.602073341955843944e+00
1.689460838038045143e+00 -3.592622720893326793e+00
1.769911354135094594e+00 -3.561494869657383155e+00
1.850361870232144490e+00 -3.485329688545158788e+00
1.930812386329194386e+00 -3.384364686775865660e+00
2.011262902426244281e+00 -3.347003544173345446e+00
2.091713418523294177e+00 -3.309852292176557853e+00
2.172163934620343628e+00 -3.279370444499285053e+00
2.252614450717393524e+00 -3.285857897380535242e+00
2.333064966814443419e+00 -3.339934928361247390e+00
2.413515482911492871e+00 -3.347494533616683920e+00
2.493965999008542767e+00 -3.339226839447414719e+00
2.574416515105592662e+00 -3.323526705398009540e+00
2.654867031202642558e+00 -3.301870331045468454e+00
2.735317547299692009e+00 -3.305345906510839260e+00
2.815768063396741905e+00 -3.327374278078834013e+00
2.896218579493791356e+00 -3.366098475254420297e+00
2.976669095590841252e+00 -3.345149926359295645e+00
3.057119611687890703e+00 -3.311761532445224976e+00
3.137570127784940599e+00 -3.325827645504225494e+00
3.218020643881990495e+00 -3.366004781344966723e+00
3.298471159979039946e+00 -3.359498917175012700e+00
3.378921676076090286e+00 -3.324941041579772438e+00
3.459372192173139737e+00 -3.297117503306230102e+00
3.539822708270189189e+00 -3.278890526854696841e+00
3.620273224367239528e+00 -3.264703683368175291e+00
3.700723740464288980e+00 -3.251786881389281181e+00
3.781174256561339320e+00 -3.248194263450333352e+00
3.861624772658388771e+00 -3.239206578304507644e+00
3.942075288755438223e+00 -3.251350414412745415e+00
4.022525804852488562e+00 -3.294166427101992589e+00
4.102976320949538014e+00 -3.326777955621741611e+00
4.183426837046588354e+00 -3.352887799392146650e+00
4.263877353143637805e+00 -3.369653781529386993e+00
4.344327869240687257e+00 -3.380800967313317695e+00
4.424778385337737596e+00 -3.405970240181100728e+00
4.505228901434787048e+00 -3.428717652696473994e+00
4.585679417531836499e+00 -3.381065807681214785e+00
4.666129933628886839e+00 -3.331681565621337437e+00
4.746580449725936290e+00 -3.334231443545764062e+00
4.827030965822985742e+00 -3.340419608189344913e+00
4.907481481920036082e+00 -3.297207741511507528e+00
4.987931998017085533e+00 -3.266893691836097791e+00
5.068382514114135873e+00 -3.295923798452023323e+00
5.148833030211185324e+00 -3.309283645474573987e+00
5.229283546308234776e+00 -3.325880165023867630e+00
5.309734062405285115e+00 -3.353550403554121040e+00
5.390184578502334567e+00 -3.367808357758431459e+00
5.470635094599384018e+00 -3.362110466229884853e+00
5.551085610696433470e+00 -3.333542560412879219e+00
5.631536126793483810e+00 -3.326887751190217735e+00
5.711986642890533261e+00 -3.351939795765468411e+00
5.792437158987582713e+00 -3.376113115060239700e+00
5.872887675084633052e+00 -3.371730405652513252e+00
5.953338191181682504e+00 -3.372780588274366664e+00
6.033788707278731955e+00 -3.396885530802664643e+00
6.114239223375781407e+00 -3.405656256739813870e+00
6.194689739472831747e+00 -3.389403527503987767e+00
6.275140255569881198e+00 -3.362539527054214439e+00
6.355590771666931538e+00 -3.348146843396417438e+00
6.436041287763980989e+00 -3.348720125217576005e+00
6.516491803861030441e+00 -3.369456062052160750e+00
6.596942319958079892e+00 -3.399792916880555627e+00
6.677392836055131120e+00 -3.393323025863135722e+00
6.757843352152180572e+00 -3.360547728159002379e+00
6.838293868249230023e+00 -3.347612558885939116e+00
6.918744384346279475e+00 -3.345121359332791755e+00
6.999194900443328926e+00 -3.343841981504638294e+00
7.079645416540378378e+00 -3.363148506059244092e+00
7.160095932637429605e+00 -3.413634956698567091e+00
7.240546448734479057e+00 -3.455973631220013331e+00
7.320996964831528508e+00 -3.427366207328802261e+00
7.401447480928577960e+00 -3.394866611706251369e+00
7.481897997025627411e+00 -3.407725961982950746e+00
7.562348513122678639e+00 -3.453250361288545012e+00
7.642799029219728091e+00 -3.478068752216803450e+00
7.723249545316777542e+00 -3.489662872627449897e+00
7.803700061413826994e+00 -3.472147115272228302e+00
7.884150577510876445e+00 -3.483457109506244098e+00
7.964601093607927673e+00 -3.472957835498911461e+00
8.045051609704977125e+00 -3.429939642273536649e+00
8.125502125802025688e+00 -3.398687224729580958e+00
8.205952641899076028e+00 -3.411614337058599400e+00
8.286403157996124591e+00 -3.448806785781485917e+00
8.366853674093176707e+00 -3.473089291004432422e+00
8.447304190190225270e+00 -3.462823407381832030e+00
8.527754706287275610e+00 -3.440105065199523970e+00
8.608205222384324173e+00 -3.466680674385582694e+00
8.688655738481374513e+00 -3.494874764313372406e+00
8.769106254578423076e+00 -3.496692294481294816e+00
8.849556770675475192e+00 -3.498813830580359330e+00
8.930007286772523756e+00 -3.484877134837472301e+00
9.010457802869574095e+00 -3.457513598137285538e+00
9.090908318966622659e+00 -3.434341898027698292e+00
9.171358835063672998e+00 -3.437644916327150746e+00
9.251809351160723338e+00 -3.448740192898320789e+00
9.332259867257773678e+00 -3.463620305895185769e+00
9.412710383354822241e+00 -3.477756801083866645e+00
9.493160899451872581e+00 -3.481298328500316508e+00
9.573611415548921144e+00 -3.464904911856834691e+00
9.654061931645971484e+00 -3.452609001051104798e+00
9.734512447743021823e+00 -3.459148360712759551e+00
9.814962963840072163e+00 -3.493117239146682707e+00
9.895413479937120727e+00 -3.502073601293105298e+00
9.975863996034171066e+00 -3.501833593203701689e+00
1.005631451213121963e+01 -3.497388764394689709e+00
1.013676502822827175e+01 -3.505499410377058922e+00
1.021721554432532031e+01 -3.531415270761054437e+00
1.029766606042237065e+01 -3.541025384847335644e+00
