0.000000000000000000e+00 -1.549019599857431873e-01
8.045051609704977069e-02 -1.942133611802828730e-01
1.609010321940995414e-01 -4.532122946583496681e-01
2.413515482911492982e-01 -1.087996675905056332e+00
3.218020643881990828e-01 -1.803753623019388241e+00
4.022525804852488118e-01 -2.745900811837053812e+00
4.827030965822985964e-01 -3.409400702232627367e+00
5.631536126793483810e-01 -3.303175865671306166e+00
6.436041287763981655e-01 -3.453280214747108889e+00
7.240546448734478391e-01 -3.676783674566446170e+00
8.045051609704976237e-01 -3.922282213326657274e+00
8.849556770675472972e-01 -3.939022669581325964e+00
9.654061931645971928e-01 -3.855009146972768974e+00
1.045856709261647088e+00 -3.792064279892792378e+00
1.126307225358696762e+00 -3.809215556337964159e+00
1.206757741455746435e+00 -3.872704596213131456e+00
1.287208257552796331e+00 -3.887236452232262440e+00
1.367658773649846005e+00 -3.821619946281119784e+00
1.448109289746895678e+00 -3.717513242983067734e+00
1.528559805843945352e+00 -3.599091364645965463e+00
1.609010321940995247e+00 -3.509828076410009601e+00
1.689460838038045143e+00 -3.473711375010687163e+00
1.769911354135094594e+00 -3.427370151897940698e+00
1.850361870232144490e+00 -3.378626813175526600e+00
1.930812386329194386e+00 -3.364173150001320334e+00
2.011262902426244281e+00 -3.348715475965882593e+00
2.091713418523294177e+00 -3.361321522341977452e+00
2.172163934620343628e+00 -3.364332326720552491e+00
2.252614450717393524e+00 -3.338303611993059139e+00
2.333064966814443419e+00 -3.275985733268284239e+00
2.413515482911492871e+00 -3.273346971148340057e+00
2.493965999008542767e+00 -3.292696733333258408e+00
2.574416515105592662e+00 -3.324255816505058636e+00
2.654867031202642558e+00 -3.343507877569777076e+00
2.735317547299692009e+00 -3.367482863734188481e+00
2.815768063396741905e+00 -3.397338249856244108e+00
2.896218579493791356e+00 -3.433731286559408069e+00
2.976669095590841252e+00 -3.451008136863936038e+00
3.057119611687890703e+00 -3.425295852278142039e+00
3.137570127784940599e+00 -3.380444354744856827e+00
3.218020643881990495e+00 -3.373267615614287784e+00
3.298471159979039946e+00 -3.369933458663895376e+00
3.378921676076090286e+00 -3.374749654188736070e+00
3.459372192173139737e+00 -3.385821246087060921e+00
3.539822708270189189e+00 -3.388834465504579008e+00
3.620273224367239528e+00 -3.382778210923294004e+00
3.700723740464288980e+00 -3.374950020137151174e+00
3.781174256561339320e+00 -3.333587108875843530e+00
3.861624772658388771e+00 -3.313422928590659566e+00
3.942075288755438223e+00 -3.324241299222466139e+00
4.022525804852488562e+00 -3.349744142517378176e+00
4.102976320949538014e+00 -3.355162194293693112e+00
4.183426837046588354e+00 -3.348837542468087847e+00
4.263877353143637805e+00 -3.387842950379714946e+00
4.344327869240687257e+00 -3.426074358083475602e+00
4.424778385337737596e+00 -3.437863481434846324e+00
4.505228901434787048e+00 -3.389664755608547519e+00
4.585679417531836499e+00 -3.345530508768149502e+00
4.666129933628886839e+00 -3.347716435835141446e+00
4.746580449725936290e+00 -3.375309435219006282e+00
4.827030965822985742e+00 -3.389134745434787988e+00
4.907481481920036082e+00 -3.374891038741449911e+00
4.987931998017085533e+00 -3.333847005111416628e+00
5.068382514114135873e+00 -3.326316493966442245e+00
5.148833030211185324e+00 -3.344306658842085778e+00
5.229283546308234776e+00 -3.349586230969979095e+00
5.309734062405285115e+00 -3.343320731076337538e+00
5.390184578502334567e+00 -3.336452884970436017e+00
5.470635094599384018e+00 -3.320609567903711312e+00
5.551085610696433470e+00 -3.315588381253989692e+00
5.631536126793483810e+00 -3.325062127706104320e+00
5.711986642890533261e+00 -3.315232041684253339e+00
5.792437158987582713e+00 -3.286125945790046021e+00
5.872887675084633052e+00 -3.299321239659454008e+00
5.953338191181682504e+00 -3.316920462956669535e+00
6.033788707278731955e+00 -3.341236812130766065e+00
6.114239223375781407e+00 -3.381274151505166081e+00
6.194689739472831747e+00 -3.407175059357057556e+00
6.275140255569881198e+00 -3.417866207307351356e+00
6.355590771666931538e+00 -3.407611687359530350e+00
6.436041287763980989e+00 -3.392039511236510041e+00
6.516491803861030441e+00 -3.394416475965743363e+00
6.596942319958079892e+00 -3.420128960029511056e+00
6.677392836055131120e+00 -3.448793611870800913e+00
6.757843352152180572e+00 -3.447484734186125444e+00
6.838293868249230023e+00 -3.396281069284635024e+00
6.918744384346279475e+00 -3.342709697422730830e+00
6.999194900443328926e+00 -3.343444404597457176e+00
7.079645416540378378e+00 -3.382060426548993970e+00
7.160095932637429605e+00 -3.412986925470015365e+00
7.240546448734479057e+00 -3.426312589910530892e+00
7.320996964831528508e+00 -3.433742852391825640e+00
7.401447480928577960e+00 -3.433374292262544980e+00
7.481897997025627411e+00 -3.435646673834129583e+00
7.562348513122678639e+00 -3.417997846819157637e+00
7.642799029219728091e+00 -3.414937801390957262e+00
7.723249545316777542e+00 -3.413168007234233414e+00
7.803700061413826994e+00 -3.436912624933125215e+00
7.884150577510876445e+00 -3.454943146825862232e+00
7.964601093607927673e+00 -3.470033882850424689e+00
8.045051609704977125e+00 -3.491528953831020576e+00
8.125502125802025688e+00 -3.488112771733383077e+00
8.205952641899076028e+00 -3.481142971693997445e+00
8.286403157996124591e+00 -3.466536018462619495e+00
8.366853674093176707e+00 -3.467385645305258279e+00
8.447304190190225270e+00 -3.477171777599416647e+00
8.527754706287275610e+00 -3.497572772031259714e+00
8.608205222384324173e+00 -3.493169724678752974e+00
8.688655738481374513e+00 -3.471778344390899829e+00
8.769106254578423076e+00 -3.462024602184900157e+00
8.849556770675475192e+00 -3.462152106068492330e+00
8.930007286772523756e+00 -3.465543846009556894e+00
9.010457802869574095e+00 -3.468290008382203471e+00
9.090908318966622659e+00 -3.461605155123182787e+00
9.171358835063672998e+00 -3.456311175062218854e+00
9.251809351160723338e+00 -3.466130490881011106e+00
9.332259867257773678e+00 -3.482639330799173205e+00
9.412710383354822241e+00 -3.471966850242671931e+00
9.493160899451872581e+00 -3.485337735092249201e+00
9.573611415548921144e+00 -3.519444386106230116e+00
9.654061931645971484e+00 -3.531632330871659065e+00
9.734512447743021823e+00 -3.520666803011774704e+00
9.814962963840072163e+00 -3.511766198682354290e+00
9.895413479937120727e+00 -3.506120498092322180e+00
9.975863996034171066e+00 -3.515960461690594840e+00
1.005631451213121963e+01 -3.514628077039225307e+00
1.013676502822827175e+01 -3.508059040623140223e+00
1.021721554432532031e+01 -3.527725803439372143e+00
1.029766606042237065e+01 -3.544031226979605265e+00
