0.000000000000000000e+00 -1.549019599857431873e-01
8.045051609704977069e-02 -1.988496201851128464e-01
1.609010321940995414e-01 -5.605289350188793485e-01
2.413515482911492982e-01 -1.538309256683862092e+00
3.218020643881990828e-01 -1.891948030817433457e+00
4.022525804852488118e-01 -2.549608190216377857e+00
4.827030965822985964e-01 -3.019251061956855331e+00
5.631536126793483810e-01 -3.179407662123987066e+00
6.436041287763981655e-01 -3.365260487522446997e+00
7.240546448734478391e-01 -3.635606868702177419e+00
8.045051609704976237e-01 -3.826471758153975333e+00
8.849556770675472972e-01 -3.906332233235233264e+00
9.654061931645971928e-01 -3.919930627558886105e+00
1.045856709261647088e+00 -3.925012932645162156e+00
1.126307225358696762e+00 -3.943339921381973312e+00
1.206757741455746435e+00 -4.004878596367738908e+00
1.287208257552796331e+00 -4.006959872007911372e+00
1.367658773649846005e+00 -3.921490764035603593e+00
1.448109289746895678e+00 -3.843831790222759448e+00
1.528559805843945352e+00 -3.813174690481434315e+00
1.609010321940995247e+00 -3.752293785809953874e+00
1.689460838038045143e+00 -3.687736457130930123e+00
1.769911354135094594e+00 -3.572880191767047187e+00
1.850361870232144490e+00 -3.412014738246829992e+00
1.930812386329194386e+00 -3.310466384751672209e+00
2.011262902426244281e+00 -3.325227188348637064e+00
2.091713418523294177e+00 -3.351919917408654470e+00
2.172163934620343628e+00 -3.346163282881538414e+00
2.252614450717393524e+00 -3.315207592780924362e+00
2.333064966814443419e+00 -3.285547477745005107e+00
2.413515482911492871e+00 -3.247104007402040526e+00
2.493965999008542767e+00 -3.247305645090121651e+00
2.574416515105592662e+00 -3.296690041785794278e+00
2.654867031202642558e+00 -3.329223216498868876e+00
2.735317547299692009e+00 -3.335076234186011401e+00
2.815768063396741905e+00 -3.305881445013712838e+00
2.896218579493791356e+00 -3.271278298847802635e+00
2.976669095590841252e+00 -3.224487371815056846e+00
3.057119611687890703e+00 -3.186439056066106890e+00
3.137570127784940599e+00 -3.205147331740390904e+00
3.218020643881990495e+00 -3.252942121333454395e+00
3.298471159979039946e+00 -3.311265653439848133e+00
3.378921676076090286e+00 -3.322386821428957582e+00
3.459372192173139737e+00 -3.319603301610871249e+00
3.539822708270189189e+00 -3.338712408043276181e+00
3.620273224367239528e+00 -3.362965211609183491e+00
3.700723740464288980e+00 -3.353816245625889092e+00
3.781174256561339320e+00 -3.333272554008379185e+00
3.861624772658388771e+00 -3.334351915319202497e+00
3.942075288755438223e+00 -3.297924369150878832e+00
4.022525804852488562e+00 -3.285176367521542407e+00
4.102976320949538014e+00 -3.322055825104063498e+00
4.183426837046588354e+00 -3.343471007561141128e+00
4.263877353143637805e+00 -3.327134518425858722e+00
4.344327869240687257e+00 -3.300423380708236820e+00
4.424778385337737596e+00 -3.286641300709859603e+00
4.505228901434787048e+00 -3.283215467188118630e+00
4.585679417531836499e+00 -3.328990472003780621e+00
4.666129933628886839e+00 -3.381229134407496506e+00
4.746580449725936290e+00 -3.385233362923590672e+00
4.827030965822985742e+00 -3.368001692914397882e+00
4.907481481920036082e+00 -3.345045344536277110e+00
4.987931998017085533e+00 -3.320425357381485920e+00
5.068382514114135873e+00 -3.297382311631353868e+00
5.148833030211185324e+00 -3.310705840054342097e+00
5.229283546308234776e+00 -3.355673790601281237e+00
5.309734062405285115e+00 -3.359756057254884798e+00
5.390184578502334567e+00 -3.327409128083332224e+00
5.470635094599384018e+00 -3.294022577448270095e+00
5.551085610696433470e+00 -3.297285595891427779e+00
5.631536126793483810e+00 -3.335015111866904469e+00
5.711986642890533261e+00 -3.364769785057220020e+00
5.792437158987582713e+00 -3.396089065254981776e+00
5.872887675084633052e+00 -3.400478283657007772e+00
5.953338191181682504e+00 -3.376023040728942437e+00
6.033788707278731955e+00 -3.377023109690411751e+00
6.114239223375781407e+00 -3.396001820910723890e+00
6.194689739472831747e+00 -3.394933587056811586e+00
6.275140255569881198e+00 -3.401662274862276458e+00
6.355590771666931538e+00 -3.434153135280453739e+00
6.436041287763980989e+00 -3.455124925460854257e+00
6.516491803861030441e+00 -3.443516038386606137e+00
6.596942319958079892e+00 -3.442824545426384386e+00
6.677392836055131120e+00 -3.429182317273824498e+00
6.757843352152180572e+00 -3.396415135718317213e+00
6.838293868249230023e+00 -3.372825909321799820e+00
6.918744384346279475e+00 -3.366620828426730494e+00
6.999194900443328926e+00 -3.372328455504580269e+00
7.079645416540378378e+00 -3.403883505102600626e+00
7.160095932637429605e+00 -3.420741910469200953e+00
7.240546448734479057e+00 -3.413254121158312060e+00
7.320996964831528508e+00 -3.399772220531756428e+00
7.401447480928577960e+00 -3.402220655936816218e+00
7.481897997025627411e+00 -3.423438031596642173e+00
7.562348513122678639e+00 -3.462791823854320050e+00
7.642799029219728091e+00 -3.481277413201228299e+00
7.723249545316777542e+00 -3.478954032612137315e+00
7.803700061413826994e+00 -3.464744702560102585e+00
7.884150577510876445e+00 -3.458530663202254107e+00
7.964601093607927673e+00 -3.453056699372933469e+00
8.045051609704977125e+00 -3.465537601666317968e+00
8.125502125802025688e+00 -3.450904393216783106e+00
8.205952641899076028e+00 -3.447828781968056866e+00
8.286403157996124591e+00 -3.451104845456456793e+00
8.366853674093176707e+00 -3.477999043317406169e+00
8.447304190190225270e+00 -3.493626786236456727e+00
8.527754706287275610e+00 -3.480173494902074616e+00
8.608205222384324173e+00 -3.455376549798028663e+00
8.688655738481374513e+00 -3.446132014091261020e+00
8.769106254578423076e+00 -3.446140117561215188e+00
8.849556770675475192e+00 -3.432839061157972438e+00
8.930007286772523756e+00 -3.462642843352937483e+00
9.010457802869574095e+00 -3.521571028908959011e+00
9.090908318966622659e+00 -3.561421690229261028e+00
9.171358835063672998e+00 -3.565181900955204597e+00
9.251809351160723338e+00 -3.566351517593691067e+00
9.332259867257773678e+00 -3.563937916602114786e+00
9.412710383354822241e+00 -3.561604992445528417e+00
9.493160899451872581e+00 -3.531500757664942647e+00
9.573611415548921144e+00 -3.536816668186649082e+00
9.654061931645971484e+00 -3.543477935866860218e+00
9.734512447743021823e+00 -3.561563279798228621e+00
9.814962963840072163e+00 -3.575563293799259856e+00
9.895413479937120727e+00 -3.587856844867527428e+00
9.975863996034171066e+00 -3.575806957710774281e+00
1.005631451213121963e+01 -3.575479006936321813e+00
1.013676502822827175e+01 -3.561349008684246087e+00
1.021721554432532031e+01 -3.542024350158085255e+00
1.029766606042237065e+01 -3.547731826822112300e+00
