0.000000000000000000e+00 -1.549019599857431873e-01
8.045051609704977069e-02 -1.816157270835391524e-01
1.609010321940995414e-01 -4.059761014948716218e-01
2.413515482911492982e-01 -7.646909570819802049e-01
3.218020643881990828e-01 -1.362345197665267404e+00
4.022525804852488118e-01 -2.056952619207793376e+00
4.827030965822985964e-01 -3.029242665315691863e+00
5.631536126793483810e-01 -3.161324787347925103e+00
6.436041287763981655e-01 -3.288407541064521489e+00
7.240546448734478391e-01 -3.308381178067024919e+00
8.045051609704976237e-01 -3.416941054997979954e+00
8.849556770675472972e-01 -3.599720163494783520e+00
9.654061931645971928e-01 -3.701390389569717332e+00
1.045856709261647088e+00 -3.776478391699406245e+00
1.126307225358696762e+00 -3.841411095339196002e+00
1.206757741455746435e+00 -3.892607159046101994e+00
1.287208257552796331e+00 -3.862572054822653200e+00
1.367658773649846005e+00 -3.785257742355751187e+00
1.448109289746895678e+00 -3.732866141531379967e+00
1.528559805843945352e+00 -3.686076453903012418e+00
1.609010321940995247e+00 -3.610348071198355768e+00
1.689460838038045143e+00 -3.581716843867718048e+00
1.769911354135094594e+00 -3.522984467039231848e+00
1.850361870232144490e+00 -3.454971300930016920e+00
1.930812386329194386e+00 -3.416247059389472707e+00
2.011262902426244281e+00 -3.404866188745668598e+00
2.091713418523294177e+00 -3.344468374811704336e+00
2.172163934620343628e+00 -3.282881721143787956e+00
2.252614450717393524e+00 -3.224883965714631984e+00
2.333064966814443419e+00 -3.187906553271214971e+00
2.413515482911492871e+00 -3.207791247152619984e+00
2.493965999008542767e+00 -3.232618743423082641e+00
2.574416515105592662e+00 -3.247559302891627198e+00
2.654867031202642558e+00 -3.266267580902750378e+00
2.735317547299692009e+00 -3.298524971710627529e+00
2.815768063396741905e+00 -3.317855590980483882e+00
2.896218579493791356e+00 -3.327493580561834197e+00
2.976669095590841252e+00 -3.321414342912951678e+00
3.057119611687890703e+00 -3.295432201398160288e+00
3.137570127784940599e+00 -3.267367257628489341e+00
3.218020643881990495e+00 -3.224108976227933798e+00
3.298471159979039946e+00 -3.194308882893158064e+00
3.378921676076090286e+00 -3.178804837203868416e+00
3.459372192173139737e+00 -3.166076779758723259e+00
3.539822708270189189e+00 -3.188549530949181587e+00
3.620273224367239528e+00 -3.210926491662052129e+00
3.700723740464288980e+00 -3.209236298105224705e+00
3.781174256561339320e+00 -3.224050520684945020e+00
3.861624772658388771e+00 -3.247168087825086147e+00
3.942075288755438223e+00 -3.277983660998528226e+00
4.022525804852488562e+00 -3.307364712412770746e+00
4.102976320949538014e+00 -3.306626250545043888e+00
4.183426837046588354e+00 -3.279653094027906057e+00
4.263877353143637805e+00 -3.246129758880230476e+00
4.344327869240687257e+00 -3.237654550104921647e+00
4.424778385337737596e+00 -3.240753544697710709e+00
4.505228901434787048e+00 -3.247514880435617979e+00
4.585679417531836499e+00 -3.236192495336488673e+00
4.666129933628886839e+00 -3.220168989720209929e+00
4.746580449725936290e+00 -3.197645935206194334e+00
4.827030965822985742e+00 -3.194860712208551945e+00
4.907481481920036082e+00 -3.203181462310812133e+00
4.987931998017085533e+00 -3.203642078678280214e+00
5.068382514114135873e+00 -3.204427796490218139e+00
5.148833030211185324e+00 -3.212100119125003150e+00
5.229283546308234776e+00 -3.224810344645000715e+00
5.309734062405285115e+00 -3.226612507099549276e+00
5.390184578502334567e+00 -3.222704176581457691e+00
5.470635094599384018e+00 -3.223686714897998851e+00
5.551085610696433470e+00 -3.235714506660004819e+00
5.631536126793483810e+00 -3.243872727564036662e+00
5.711986642890533261e+00 -3.260875309625597573e+00
5.792437158987582713e+00 -3.231540746503104078e+00
5.872887675084633052e+00 -3.214061057272139088e+00
5.953338191181682504e+00 -3.238154790987715526e+00
6.033788707278731955e+00 -3.259589614770463051e+00
6.114239223375781407e+00 -3.277537115509737475e+00
6.194689739472831747e+00 -3.277827994703204961e+00
6.275140255569881198e+00 -3.299415049585016746e+00
6.355590771666931538e+00 -3.311430025482758666e+00
6.436041287763980989e+00 -3.308993781562212355e+00
6.516491803861030441e+00 -3.313894840174925971e+00
6.596942319958079892e+00 -3.355302145506554368e+00
6.677392836055131120e+00 -3.358721726643632888e+00
6.757843352152180572e+00 -3.361270594176470006e+00
6.838293868249230023e+00 -3.359980394075417820e+00
6.918744384346279475e+00 -3.352173590191764863e+00
6.999194900443328926e+00 -3.330610930860080199e+00
7.079645416540378378e+00 -3.308379778027381590e+00
7.160095932637429605e+00 -3.311716245875981901e+00
7.240546448734479057e+00 -3.328688778236320811e+00
7.320996964831528508e+00 -3.337751501911085494e+00
7.401447480928577960e+00 -3.325140475700969045e+00
7.481897997025627411e+00 -3.318450676477311401e+00
7.562348513122678639e+00 -3.326142153730381246e+00
7.642799029219728091e+00 -3.319959613295781153e+00
7.723249545316777542e+00 -3.311827108634982864e+00
7.803700061413826994e+00 -3.298724478902792967e+00
7.884150577510876445e+00 -3.296208963389729352e+00
7.964601093607927673e+00 -3.287334396434520301e+00
8.045051609704977125e+00 -3.269409370004085158e+00
8.125502125802025688e+00 -3.258459912791831226e+00
8.205952641899076028e+00 -3.270924523946199258e+00
8.286403157996124591e+00 -3.278561358274228787e+00
8.366853674093176707e+00 -3.283535784038345007e+00
8.447304190190225270e+00 -3.310077326911284867e+00
8.527754706287275610e+00 -3.343335385900669365e+00
8.608205222384324173e+00 -3.369951877401928808e+00
8.688655738481374513e+00 -3.380105494438326641e+00
8.769106254578423076e+00 -3.359465406662941689e+00
8.849556770675475192e+00 -3.326509953193161895e+00
8.930007286772523756e+00 -3.306141372227274111e+00
9.010457802869574095e+00 -3.304472607028998254e+00
9.090908318966622659e+00 -3.317980194799594607e+00
9.171358835063672998e+00 -3.345461992648573801e+00
9.251809351160723338e+00 -3.366114997041032897e+00
9.332259867257773678e+00 -3.380951733014449623e+00
9.412710383354822241e+00 -3.384926745500557388e+00
9.493160899451872581e+00 -3.378491246845355622e+00
9.573611415548921144e+00 -3.362006303840779697e+00
9.654061931645971484e+00 -3.353217687187995288e+00
9.734512447743021823e+00 -3.363738733004620229e+00
9.814962963840072163e+00 -3.386098365312228964e+00
9.895413479937120727e+00 -3.424827113393455580e+00
9.975863996034171066e+00 -3.448782730800247887e+00
1.005631451213121963e+01 -3.450610893823485181e+00
1.013676502822827175e+01 -3.453674140746099130e+00
1.021721554432532031e+01 -3.461460744230279829e+00
1.029766606042237065e+01 -3.454446973873345428e+00
