0.000000000000000000e+00 -1.549019599857431873e-01
8.045051609704977069e-02 -3.932161285879241519e-01
1.609010321940995414e-01 -1.135522650109942244e+00
2.413515482911492982e-01 -2.896360116367179049e+00
3.218020643881990828e-01 -3.836276721785697674e+00
4.022525804852488118e-01 -4.874294655155669176e+00
4.827030965822985964e-01 -6.255389450009202434e+00
5.631536126793483810e-01 -6.709462786801458023e+00
6.436041287763981655e-01 -6.792618263763658071e+00
7.240546448734478391e-01 -6.929444658902759180e+00
8.045051609704976237e-01 -7.153537924724229669e+00
8.849556770675472972e-01 -7.396777752972624853e+00
9.654061931645971928e-01 -7.628071306175913335e+00
1.045856709261647088e+00 -7.660441407128501190e+00
1.126307225358696762e+00 -7.551105203352283191e+00
1.206757741455746435e+00 -7.560594762958257498e+00
1.287208257552796331e+00 -7.602582030137971181e+00
1.367658773649846005e+00 -7.548050162767201421e+00
1.448109289746895678e+00 -7.473340200587452742e+00
1.528559805843945352e+00 -7.558519500678670511e+00
1.609010321940995247e+00 -7.514083190019533731e+00
1.689460838038045143e+00 -7.236675195576666830e+00
1.769911354135094594e+00 -6.960182913930467841e+00
1.850361870232144490e+00 -6.771870515039466021e+00
1.930812386329194386e+00 -6.570437070074278907e+00
2.011262902426244281e+00 -6.408161950034821253e+00
2.091713418523294177e+00 -6.318515141522615508e+00
2.172163934620343628e+00 -6.308136609504238379e+00
2.252614450717393524e+00 -6.254750109912066591e+00
2.333064966814443419e+00 -6.250526341518196638e+00
2.413515482911492871e+00 -6.276299597156413057e+00
2.493965999008542767e+00 -6.320555602915371551e+00
2.574416515105592662e+00 -6.410257485430676638e+00
2.654867031202642558e+00 -6.532832227073018139e+00
2.735317547299692009e+00 -6.516477493380516961e+00
2.815768063396741905e+00 -6.479791827280179106e+00
2.896218579493791356e+00 -6.556548035300773236e+00
2.976669095590841252e+00 -6.533477676070044815e+00
3.057119611687890703e+00 -6.422075828200605407e+00
3.137570127784940599e+00 -6.379967098653724911e+00
3.218020643881990495e+00 -6.443120699138366270e+00
3.298471159979039946e+00 -6.488779520637221410e+00
3.378921676076090286e+00 -6.427948376873471759e+00
3.459372192173139737e+00 -6.331535513242451785e+00
3.539822708270189189e+00 -6.330723136018027830e+00
3.620273224367239528e+00 -6.365001549768810385e+00
3.700723740464288980e+00 -6.443515466477141906e+00
3.781174256561339320e+00 -6.491481162406243399e+00
3.861624772658388771e+00 -6.425206887002327782e+00
3.942075288755438223e+00 -6.382060541504244178e+00
4.022525804852488562e+00 -6.409458955244408784e+00
4.102976320949538014e+00 -6.432142561270459247e+00
4.183426837046588354e+00 -6.472393477188262523e+00
4.263877353143637805e+00 -6.476500258611523897e+00
4.344327869240687257e+00 -6.446152767474290002e+00
4.424778385337737596e+00 -6.403981733303268697e+00
4.505228901434787048e+00 -6.394486532505481158e+00
4.585679417531836499e+00 -6.434249758357878157e+00
4.666129933628886839e+00 -6.528181737920694339e+00
4.746580449725936290e+00 -6.609785098018044813e+00
4.827030965822985742e+00 -6.679411558666545012e+00
4.907481481920036082e+00 -6.715378836308387278e+00
4.987931998017085533e+00 -6.666456852359617713e+00
5.068382514114135873e+00 -6.625189147936516143e+00
5.148833030211185324e+00 -6.573918450286724280e+00
5.229283546308234776e+00 -6.532188208680826946e+00
5.309734062405285115e+00 -6.534085294385864273e+00
5.390184578502334567e+00 -6.524787540114672879e+00
5.470635094599384018e+00 -6.440367719011045544e+00
5.551085610696433470e+00 -6.423017914692091601e+00
5.631536126793483810e+00 -6.506054126264846360e+00
5.711986642890533261e+00 -6.556453903548416839e+00
5.792437158987582713e+00 -6.548314086734912109e+00
5.872887675084633052e+00 -6.527866095669761393e+00
5.953338191181682504e+00 -6.573210991961481398e+00
6.033788707278731955e+00 -6.620794712796897130e+00
6.114239223375781407e+00 -6.634047932625704469e+00
6.194689739472831747e+00 -6.644073450420018290e+00
6.275140255569881198e+00 -6.637415797659941497e+00
6.355590771666931538e+00 -6.598637385989229998e+00
6.436041287763980989e+00 -6.544377189067834166e+00
6.516491803861030441e+00 -6.576591081099087965e+00
6.596942319958079892e+00 -6.610374634756882806e+00
6.677392836055131120e+00 -6.586795033724927251e+00
6.757843352152180572e+00 -6.526553983617813692e+00
6.838293868249230023e+00 -6.538448946266536943e+00
6.918744384346279475e+00 -6.529448594814565077e+00
6.999194900443328926e+00 -6.538162198209484188e+00
7.079645416540378378e+00 -6.539771722007538202e+00
7.160095932637429605e+00 -6.579890095682198847e+00
7.240546448734479057e+00 -6.664285894480427963e+00
7.320996964831528508e+00 -6.736788070151658481e+00
7.401447480928577960e+00 -6.714840846840734123e+00
7.481897997025627411e+00 -6.687729885674757568e+00
7.562348513122678639e+00 -6.657641100449959382e+00
7.642799029219728091e+00 -6.631291133842344365e+00
7.723249545316777542e+00 -6.613920926433701553e+00
7.803700061413826994e+00 -6.639400278439289593e+00
7.884150577510876445e+00 -6.674249721491108289e+00
7.964601093607927673e+00 -6.676365908408380179e+00
8.045051609704977125e+00 -6.648697894464463687e+00
8.125502125802025688e+00 -6.668084792033514674e+00
8.205952641899076028e+00 -6.758989418159440987e+00
8.286403157996124591e+00 -6.770910485372869658e+00
8.366853674093176707e+00 -6.728585443874813166e+00
8.447304190190225270e+00 -6.679191373981674396e+00
8.527754706287275610e+00 -6.654482254169923117e+00
8.608205222384324173e+00 -6.666055046029170761e+00
8.688655738481374513e+00 -6.701735084057933278e+00
8.769106254578423076e+00 -6.751735059868665623e+00
8.849556770675475192e+00 -6.789132403983032304e+00
8.930007286772523756e+00 -6.804012746800016664e+00
9.010457802869574095e+00 -6.818906831426936321e+00
9.090908318966622659e+00 -6.839367648768396535e+00
9.171358835063672998e+00 -6.873048174122890153e+00
9.251809351160723338e+00 -6.887922432086243774e+00
9.332259867257773678e+00 -6.851923532094839508e+00
9.412710383354822241e+00 -6.801199101557793725e+00
9.493160899451872581e+00 -6.751350208566055500e+00
9.573611415548921144e+00 -6.738873233366788895e+00
9.654061931645971484e+00 -6.785059801978277072e+00
9.734512447743021823e+00 -6.839877337328741369e+00
9.814962963840072163e+00 -6.831486959989116592e+00
9.895413479937120727e+00 -6.798595724657665151e+00
9.975863996034171066e+00 -6.794384723483791078e+00
1.005631451213121963e+01 -6.828525593049407760e+00
1.013676502822827175e+01 -6.832069276353728959e+00
1.021721554432532031e+01 -6.834185352113977707e+00
1.029766606042237065e+01 -6.866944976659459243e+00
