0.000000000000000000e+00 -1.549019599857431873e-01
8.045051609704977069e-02 -2.017809149349007736e-01
1.609010321940995414e-01 -5.956465052571574548e-01
2.413515482911492982e-01 -1.640198020439576521e+00
3.218020643881990828e-01 -2.260398648002519106e+00
4.022525804852488118e-01 -2.769082079632431359e+00
4.827030965822985964e-01 -3.260561757480151979e+00
5.631536126793483810e-01 -3.709916919991506745e+00
6.436041287763981655e-01 -3.838018016409658451e+00
7.240546448734478391e-01 -3.830160426601387336e+00
8.045051609704976237e-01 -3.840513557988214810e+00
8.849556770675472972e-01 -3.813637954936124341e+00
9.654061931645971928e-01 -3.797952216857232166e+00
1.045856709261647088e+00 -3.822310403217651142e+00
1.126307225358696762e+00 -3.777330040014216017e+00
1.206757741455746435e+00 -3.702781641595473072e+00
1.287208257552796331e+00 -3.656300730489696615e+00
1.367658773649846005e+00 -3.696798438305082701e+00
1.448109289746895678e+00 -3.752466779986423973e+00
1.528559805843945352e+00 -3.718883350999654613e+00
1.609010321940995247e+00 -3.621568401929874170e+00
1.689460838038045143e+00 -3.505295637947696274e+00
1.769911354135094594e+00 -3.436605590917481745e+00
1.850361870232144490e+00 -3.443333927979610909e+00
1.930812386329194386e+00 -3.415188002040020709e+00
2.011262902426244281e+00 -3.311368317907233294e+00
2.091713418523294177e+00 -3.214183157013126735e+00
2.172163934620343628e+00 -3.188952006882511458e+00
2.252614450717393524e+00 -3.195655164083592847e+00
2.333064966814443419e+00 -3.147879086796288473e+00
2.413515482911492871e+00 -3.112283483870644574e+00
2.493965999008542767e+00 -3.131918499745924400e+00
2.574416515105592662e+00 -3.153021262450780515e+00
2.654867031202642558e+00 -3.154979993006373995e+00
2.735317547299692009e+00 -3.148310639856679138e+00
2.815768063396741905e+00 -3.164517128475083929e+00
2.896218579493791356e+00 -3.187502364273246958e+00
2.976669095590841252e+00 -3.210409805383278581e+00
3.057119611687890703e+00 -3.223146855421936241e+00
3.137570127784940599e+00 -3.229668207683224601e+00
3.218020643881990495e+00 -3.231258597552443934e+00
3.298471159979039946e+00 -3.275078669272668108e+00
3.378921676076090286e+00 -3.323896526715783395e+00
3.459372192173139737e+00 -3.309169335182536198e+00
3.539822708270189189e+00 -3.261367737263495048e+00
3.620273224367239528e+00 -3.206613105703440603e+00
3.700723740464288980e+00 -3.179799335242244229e+00
3.781174256561339320e+00 -3.200831275022885336e+00
3.861624772658388771e+00 -3.216854749298020621e+00
3.942075288755438223e+00 -3.194211072160852538e+00
4.022525804852488562e+00 -3.218914834662278679e+00
4.102976320949538014e+00 -3.242703617487458612e+00
4.183426837046588354e+00 -3.245896410679642852e+00
4.263877353143637805e+00 -3.237462807527218267e+00
4.344327869240687257e+00 -3.226967225100847880e+00
4.424778385337737596e+00 -3.188236140426130572e+00
4.505228901434787048e+00 -3.166214516195593465e+00
4.585679417531836499e+00 -3.167246591547742351e+00
4.666129933628886839e+00 -3.180336014746147910e+00
4.746580449725936290e+00 -3.211144456049263685e+00
4.827030965822985742e+00 -3.248002997847462048e+00
4.907481481920036082e+00 -3.274396443862383599e+00
4.987931998017085533e+00 -3.286821603175774875e+00
5.068382514114135873e+00 -3.308634240581457941e+00
5.148833030211185324e+00 -3.316216085946849912e+00
5.229283546308234776e+00 -3.314801398150279521e+00
5.309734062405285115e+00 -3.288812609314215596e+00
5.390184578502334567e+00 -3.264136448870853968e+00
5.470635094599384018e+00 -3.248461517701040080e+00
5.551085610696433470e+00 -3.258519062808586497e+00
5.631536126793483810e+00 -3.271220139102681390e+00
5.711986642890533261e+00 -3.267244666238282580e+00
5.792437158987582713e+00 -3.244185986910330222e+00
5.872887675084633052e+00 -3.243160137029180490e+00
5.953338191181682504e+00 -3.265078465734013058e+00
6.033788707278731955e+00 -3.270277547024612375e+00
6.114239223375781407e+00 -3.256252342385735243e+00
6.194689739472831747e+00 -3.278401812484517119e+00
6.275140255569881198e+00 -3.295834876341263708e+00
6.355590771666931538e+00 -3.309117300565023179e+00
6.436041287763980989e+00 -3.297411167066945037e+00
6.516491803861030441e+00 -3.271961756374444974e+00
6.596942319958079892e+00 -3.259243698309336690e+00
6.677392836055131120e+00 -3.284783363675738421e+00
6.757843352152180572e+00 -3.301487023478278271e+00
6.838293868249230023e+00 -3.306854195312384004e+00
6.918744384346279475e+00 -3.316315917496854837e+00
6.999194900443328926e+00 -3.329964726591605917e+00
7.079645416540378378e+00 -3.339870044166796781e+00
7.160095932637429605e+00 -3.323992570795224477e+00
7.240546448734479057e+00 -3.287800592070948547e+00
7.320996964831528508e+00 -3.267483770636770313e+00
7.401447480928577960e+00 -3.252652945597643175e+00
7.481897997025627411e+00 -3.273623639222780213e+00
7.562348513122678639e+00 -3.285343676808784696e+00
7.642799029219728091e+00 -3.328220734704321337e+00
7.723249545316777542e+00 -3.354232725400654758e+00
7.803700061413826994e+00 -3.357334915441434031e+00
7.884150577510876445e+00 -3.346673166601721316e+00
7.964601093607927673e+00 -3.324985962672739159e+00
8.045051609704977125e+00 -3.342128760756968742e+00
8.125502125802025688e+00 -3.359798681759418315e+00
8.205952641899076028e+00 -3.353870870729195985e+00
8.286403157996124591e+00 -3.335959955215880068e+00
8.366853674093176707e+00 -3.355270870917208992e+00
8.447304190190225270e+00 -3.376765655558920276e+00
8.527754706287275610e+00 -3.389908395272691166e+00
8.608205222384324173e+00 -3.389271037791527608e+00
8.688655738481374513e+00 -3.374712912309637325e+00
8.769106254578423076e+00 -3.368605363488524240e+00
8.849556770675475192e+00 -3.364537515359855124e+00
8.930007286772523756e+00 -3.356647441479216010e+00
9.010457802869574095e+00 -3.369242862626277368e+00
9.090908318966622659e+00 -3.386993363952516045e+00
9.171358835063672998e+00 -3.408952232681762062e+00
9.251809351160723338e+00 -3.421125938538728040e+00
9.332259867257773678e+00 -3.438900903029683764e+00
9.412710383354822241e+00 -3.448002889005840732e+00
9.493160899451872581e+00 -3.451811294304601763e+00
9.573611415548921144e+00 -3.442740362660728248e+00
9.654061931645971484e+00 -3.425655569049111726e+00
9.734512447743021823e+00 -3.405682423474943654e+00
9.814962963840072163e+00 -3.395916773852493797e+00
9.895413479937120727e+00 -3.403930939773832431e+00
9.975863996034171066e+00 -3.429433065628316069e+00
1.005631451213121963e+01 -3.467987642031805873e+00
1.013676502822827175e+01 -3.486436903264353848e+00
1.021721554432532031e+01 -3.468727527700564472e+00
1.029766606042237065e+01 -3.447321660792934228e+00
