0.000000000000000000e+00 -1.549019599857431873e-01
8.045051609704977069e-02 -1.927309707554405172e-01
1.609010321940995414e-01 -5.401791889782400213e-01
2.413515482911492982e-01 -1.626993517526263755e+00
3.218020643881990828e-01 -2.625193300171041688e+00
4.022525804852488118e-01 -2.891388499829838032e+00
4.827030965822985964e-01 -3.205166873121868321e+00
5.631536126793483810e-01 -3.480025715704172296e+00
6.436041287763981655e-01 -3.649319011287936565e+00
7.240546448734478391e-01 -3.854819777590827723e+00
8.045051609704976237e-01 -3.944541176405118144e+00
8.849556770675472972e-01 -3.949585667803131361e+00
9.654061931645971928e-01 -3.869324758355388916e+00
1.045856709261647088e+00 -3.758423571431948496e+00
1.126307225358696762e+00 -3.714050196376281754e+00
1.206757741455746435e+00 -3.694310925822081870e+00
1.287208257552796331e+00 -3.651493091689874237e+00
1.367658773649846005e+00 -3.622510133857400394e+00
1.448109289746895678e+00 -3.626731268674507458e+00
1.528559805843945352e+00 -3.642426497206285863e+00
1.609010321940995247e+00 -3.664775627593229501e+00
1.689460838038045143e+00 -3.632355871773543132e+00
1.769911354135094594e+00 -3.511045919032207419e+00
1.850361870232144490e+00 -3.426902435469065811e+00
1.930812386329194386e+00 -3.375758368204812232e+00
2.011262902426244281e+00 -3.304152922572219708e+00
2.091713418523294177e+00 -3.207427032698489278e+00
2.172163934620343628e+00 -3.126467470023221118e+00
2.252614450717393524e+00 -3.130281950417852954e+00
2.333064966814443419e+00 -3.178510603231812226e+00
2.413515482911492871e+00 -3.257404311483040882e+00
2.493965999008542767e+00 -3.351714885754173867e+00
2.574416515105592662e+00 -3.372431455226148511e+00
2.654867031202642558e+00 -3.315250695723345853e+00
2.735317547299692009e+00 -3.266894697744812781e+00
2.815768063396741905e+00 -3.236900746942569906e+00
2.896218579493791356e+00 -3.211843863842802183e+00
2.976669095590841252e+00 -3.225710739774429126e+00
3.057119611687890703e+00 -3.223513829545473719e+00
3.137570127784940599e+00 -3.200660524883401248e+00
3.218020643881990495e+00 -3.192128818733637630e+00
3.298471159979039946e+00 -3.219425518520823370e+00
3.378921676076090286e+00 -3.220036831627669294e+00
3.459372192173139737e+00 -3.198337975768021924e+00
3.539822708270189189e+00 -3.174122114151058938e+00
3.620273224367239528e+00 -3.175322610235609133e+00
3.700723740464288980e+00 -3.190752513195911799e+00
3.781174256561339320e+00 -3.211128098410772402e+00
3.861624772658388771e+00 -3.219275090553050056e+00
3.942075288755438223e+00 -3.195126016734793239e+00
4.022525804852488562e+00 -3.196963631646557058e+00
4.102976320949538014e+00 -3.260440425862840552e+00
4.183426837046588354e+00 -3.316579341292487992e+00
4.263877353143637805e+00 -3.342697551107711273e+00
4.344327869240687257e+00 -3.324122764665212948e+00
4.424778385337737596e+00 -3.280484091031016458e+00
4.505228901434787048e+00 -3.231439179352174840e+00
4.585679417531836499e+00 -3.210622462706127500e+00
4.666129933628886839e+00 -3.236133570255808056e+00
4.746580449725936290e+00 -3.272545187529050548e+00
4.827030965822985742e+00 -3.251618799178302321e+00
4.907481481920036082e+00 -3.219094005785952728e+00
4.987931998017085533e+00 -3.197364582076114736e+00
5.068382514114135873e+00 -3.203825933260481928e+00
5.148833030211185324e+00 -3.239969613429434681e+00
5.229283546308234776e+00 -3.269568947052522656e+00
5.309734062405285115e+00 -3.271210559716420718e+00
5.390184578502334567e+00 -3.254390690646542517e+00
5.470635094599384018e+00 -3.254055415508976701e+00
5.551085610696433470e+00 -3.265993262284474064e+00
5.631536126793483810e+00 -3.265009672213011971e+00
5.711986642890533261e+00 -3.246127091355611061e+00
5.792437158987582713e+00 -3.261095945555229747e+00
5.872887675084633052e+00 -3.287048795051493499e+00
5.953338191181682504e+00 -3.276214546627898461e+00
6.033788707278731955e+00 -3.248133104594014497e+00
6.114239223375781407e+00 -3.247264270877377346e+00
6.194689739472831747e+00 -3.268650982965179974e+00
6.275140255569881198e+00 -3.292931491106166231e+00
6.355590771666931538e+00 -3.303561964708457754e+00
6.436041287763980989e+00 -3.324667059792639989e+00
6.516491803861030441e+00 -3.342517794578633961e+00
6.596942319958079892e+00 -3.320775344316651001e+00
6.677392836055131120e+00 -3.309429323448974003e+00
6.757843352152180572e+00 -3.310700167704383023e+00
6.838293868249230023e+00 -3.305581344096063745e+00
6.918744384346279475e+00 -3.287715475305037049e+00
6.999194900443328926e+00 -3.269628553327319942e+00
7.079645416540378378e+00 -3.253108142666415237e+00
7.160095932637429605e+00 -3.249841936014982835e+00
7.240546448734479057e+00 -3.256428638464859748e+00
7.320996964831528508e+00 -3.255772886476816730e+00
7.401447480928577960e+00 -3.254597369006086982e+00
7.481897997025627411e+00 -3.254639709395616975e+00
7.562348513122678639e+00 -3.278181391493266261e+00
7.642799029219728091e+00 -3.301367000900248261e+00
7.723249545316777542e+00 -3.314497353460537976e+00
7.803700061413826994e+00 -3.327891807752047182e+00
7.884150577510876445e+00 -3.333943076893445934e+00
7.964601093607927673e+00 -3.324425048818674178e+00
8.045051609704977125e+00 -3.314873156414343658e+00
8.125502125802025688e+00 -3.314882989812966141e+00
8.205952641899076028e+00 -3.317420432930371810e+00
8.286403157996124591e+00 -3.325340612521535011e+00
8.366853674093176707e+00 -3.341543869188329907e+00
8.447304190190225270e+00 -3.353625338349203844e+00
8.527754706287275610e+00 -3.359119312035220073e+00
8.608205222384324173e+00 -3.361730824574397758e+00
8.688655738481374513e+00 -3.348430244848386916e+00
8.769106254578423076e+00 -3.352555826467339628e+00
8.849556770675475192e+00 -3.371555663870429154e+00
8.930007286772523756e+00 -3.391597145790692380e+00
9.010457802869574095e+00 -3.379712704119096855e+00
9.090908318966622659e+00 -3.366549449786814918e+00
9.171358835063672998e+00 -3.340743177536242836e+00
9.251809351160723338e+00 -3.339442930234478357e+00
9.332259867257773678e+00 -3.378387084125638040e+00
9.412710383354822241e+00 -3.402965323401323072e+00
9.493160899451872581e+00 -3.371733431194452901e+00
9.573611415548921144e+00 -3.342086162398776317e+00
9.654061931645971484e+00 -3.344315997388896733e+00
9.734512447743021823e+00 -3.370178606428520851e+00
9.814962963840072163e+00 -3.394741004242590954e+00
9.895413479937120727e+00 -3.426358824834758732e+00
9.975863996034171066e+00 -3.434082760234656639e+00
1.005631451213121963e+01 -3.442334562531311981e+00
1.013676502822827175e+01 -3.448000491836399561e+00
1.021721554432532031e+01 -3.450343771005825566e+00
1.029766606042237065e+01 -3.449300079046931256e+00
