0.000000000000000000e+00 -1.549019599857431873e-01
8.045051609704977069e-02 -1.938612041633712979e-01
1.609010321940995414e-01 -5.197574746623838671e-01
2.413515482911492982e-01 -1.260103042286307096e+00
3.218020643881990828e-01 -1.630811051689234903e+00
4.022525804852488118e-01 -2.136535726852768491e+00
4.827030965822985964e-01 -2.584092997131981484e+00
5.631536126793483810e-01 -2.895930887873432891e+00
6.436041287763981655e-01 -3.134697029131754853e+00
7.240546448734478391e-01 -3.376917133548175354e+00
8.045051609704976237e-01 -3.514345962889506403e+00
8.849556770675472972e-01 -3.569766826026153250e+00
9.654061931645971928e-01 -3.646877841391474639e+00
1.045856709261647088e+00 -3.656346933103796548e+00
1.126307225358696762e+00 -3.625428894017722392e+00
1.206757741455746435e+00 -3.658111143841729973e+00
1.287208257552796331e+00 -3.749114546948705939e+00
1.367658773649846005e+00 -3.737124712982523800e+00
1.448109289746895678e+00 -3.627238719324718641e+00
1.528559805843945352e+00 -3.492467112976871846e+00
1.609010321940995247e+00 -3.357347456049300405e+00
1.689460838038045143e+00 -3.262451148913831478e+00
1.769911354135094594e+00 -3.223278629037441334e+00
1.850361870232144490e+00 -3.137751283330882934e+00
1.930812386329194386e+00 -3.045790285543763076e+00
2.011262902426244281e+00 -3.021658033396686260e+00
2.091713418523294177e+00 -3.004833863829437401e+00
2.172163934620343628e+00 -2.975524283396781655e+00
2.252614450717393524e+00 -2.962136735896892858e+00
2.333064966814443419e+00 -2.982467378337440245e+00
2.413515482911492871e+00 -3.046131563222470806e+00
2.493965999008542767e+00 -3.096387745219893350e+00
2.574416515105592662e+00 -3.099941686941729113e+00
2.654867031202642558e+00 -3.052677953945758027e+00
2.735317547299692009e+00 -3.021318076370658634e+00
2.815768063396741905e+00 -3.059758601306485470e+00
2.896218579493791356e+00 -3.158609498069243404e+00
2.976669095590841252e+00 -3.232694747909109267e+00
3.057119611687890703e+00 -3.225408401408852654e+00
3.137570127784940599e+00 -3.171777469894742740e+00
3.218020643881990495e+00 -3.155248197316899095e+00
3.298471159979039946e+00 -3.131514506959188093e+00
3.378921676076090286e+00 -3.126863971795606822e+00
3.459372192173139737e+00 -3.102256112140291400e+00
3.539822708270189189e+00 -3.079927521594364670e+00
3.620273224367239528e+00 -3.062937628691912550e+00
3.700723740464288980e+00 -3.096069769254751858e+00
3.781174256561339320e+00 -3.133634187920090852e+00
3.861624772658388771e+00 -3.153034627282321978e+00
3.942075288755438223e+00 -3.121949653470863062e+00
4.022525804852488562e+00 -3.092409976808179639e+00
4.102976320949538014e+00 -3.085951473492508423e+00
4.183426837046588354e+00 -3.109950127012349963e+00
4.263877353143637805e+00 -3.126039552928453258e+00
4.344327869240687257e+00 -3.126701017069707156e+00
4.424778385337737596e+00 -3.114593559278157286e+00
4.505228901434787048e+00 -3.110619628227266009e+00
4.585679417531836499e+00 -3.088952662723082110e+00
4.666129933628886839e+00 -3.072858179687421476e+00
4.746580449725936290e+00 -3.063033853949892027e+00
4.827030965822985742e+00 -3.058169887513797036e+00
4.907481481920036082e+00 -3.058566478068764471e+00
4.987931998017085533e+00 -3.060247314730883517e+00
5.068382514114135873e+00 -3.089766147407126073e+00
5.148833030211185324e+00 -3.117734160540774457e+00
5.229283546308234776e+00 -3.129738988940985678e+00
5.309734062405285115e+00 -3.157659124106718895e+00
5.390184578502334567e+00 -3.180138836429208027e+00
5.470635094599384018e+00 -3.143929347103996630e+00
5.551085610696433470e+00 -3.116567465017543004e+00
5.631536126793483810e+00 -3.152902268987133549e+00
5.711986642890533261e+00 -3.168823387153269611e+00
5.792437158987582713e+00 -3.190779413923440888e+00
5.872887675084633052e+00 -3.218206665964928437e+00
5.953338191181682504e+00 -3.215935101324230327e+00
6.033788707278731955e+00 -3.171046384986827782e+00
6.114239223375781407e+00 -3.147541371714211778e+00
6.194689739472831747e+00 -3.143392247024121566e+00
6.275140255569881198e+00 -3.135255155829733908e+00
6.355590771666931538e+00 -3.139050733150801964e+00
6.436041287763980989e+00 -3.165081839335042169e+00
6.516491803861030441e+00 -3.207347128135433767e+00
6.596942319958079892e+00 -3.230216468729494750e+00
6.677392836055131120e+00 -3.229537780462603536e+00
6.757843352152180572e+00 -3.187773188788858292e+00
6.838293868249230023e+00 -3.134457833980083485e+00
6.918744384346279475e+00 -3.129876212128314350e+00
6.999194900443328926e+00 -3.146411282377239438e+00
7.079645416540378378e+00 -3.170255054313547483e+00
7.160095932637429605e+00 -3.190438588254798979e+00
7.240546448734479057e+00 -3.186391600249471434e+00
7.320996964831528508e+00 -3.209463453027350255e+00
7.401447480928577960e+00 -3.217715839931645672e+00
7.481897997025627411e+00 -3.202770626644481311e+00
7.562348513122678639e+00 -3.182047670634469583e+00
7.642799029219728091e+00 -3.214129520742241564e+00
7.723249545316777542e+00 -3.234196626004822051e+00
7.803700061413826994e+00 -3.225318449881438454e+00
7.884150577510876445e+00 -3.215975953296060119e+00
7.964601093607927673e+00 -3.211417458392684221e+00
8.045051609704977125e+00 -3.203210397956107958e+00
8.125502125802025688e+00 -3.231259533692676822e+00
8.205952641899076028e+00 -3.269816129164423213e+00
8.286403157996124591e+00 -3.279843546057259029e+00
8.366853674093176707e+00 -3.255860297234135281e+00
8.447304190190225270e+00 -3.228455444064674218e+00
8.527754706287275610e+00 -3.203354508769142406e+00
8.608205222384324173e+00 -3.191529498783582941e+00
8.688655738481374513e+00 -3.213451063045298817e+00
8.769106254578423076e+00 -3.241772527121111747e+00
8.849556770675475192e+00 -3.261955562892797200e+00
8.930007286772523756e+00 -3.249989618151783777e+00
9.010457802869574095e+00 -3.253332528448671823e+00
9.090908318966622659e+00 -3.286948318279280912e+00
9.171358835063672998e+00 -3.301205290577227558e+00
9.251809351160723338e+00 -3.286132832695833006e+00
9.332259867257773678e+00 -3.305432877341173636e+00
9.412710383354822241e+00 -3.339111094257925405e+00
9.493160899451872581e+00 -3.330919160702895621e+00
9.573611415548921144e+00 -3.294308610112026248e+00
9.654061931645971484e+00 -3.290866449754132006e+00
9.734512447743021823e+00 -3.304655924591108906e+00
9.814962963840072163e+00 -3.302091347027844570e+00
9.895413479937120727e+00 -3.296649474192532292e+00
9.975863996034171066e+00 -3.301549244560298302e+00
1.005631451213121963e+01 -3.307697333046720978e+00
1.013676502822827175e+01 -3.309315353321544695e+00
1.021721554432532031e+01 -3.295235017597150318e+00
1.029766606042237065e+01 -3.293403592391928036e+00
