0.000000000000000000e+00 -1.549019599857431873e-01
8.045051609704977069e-02 -1.752133390204486663e-01
1.609010321940995414e-01 -3.943630339995644052e-01
2.413515482911492982e-01 -7.638036473664095993e-01
3.218020643881990828e-01 -1.229756564838598187e+00
4.022525804852488118e-01 -1.702108572254450003e+00
4.827030965822985964e-01 -2.581863966184687609e+00
5.631536126793483810e-01 -2.914284936475915799e+00
6.436041287763981655e-01 -3.039328281288490974e+00
7.240546448734478391e-01 -3.181861753556727290e+00
8.045051609704976237e-01 -3.275166964276408077e+00
8.849556770675472972e-01 -3.351751246183813926e+00
9.654061931645971928e-01 -3.419507023945154600e+00
1.045856709261647088e+00 -3.476036967591254356e+00
1.126307225358696762e+00 -3.497954316332921199e+00
1.206757741455746435e+00 -3.494581663703815178e+00
1.287208257552796331e+00 -3.444432178363892927e+00
1.367658773649846005e+00 -3.402530868132487285e+00
1.448109289746895678e+00 -3.402743198130159463e+00
1.528559805843945352e+00 -3.392886374480799994e+00
1.609010321940995247e+00 -3.327435805678632619e+00
1.689460838038045143e+00 -3.295966365711250567e+00
1.769911354135094594e+00 -3.281244281727819345e+00
1.850361870232144490e+00 -3.256033780264612432e+00
1.930812386329194386e+00 -3.202991429588425643e+00
2.011262902426244281e+00 -3.108615393287701423e+00
2.091713418523294177e+00 -3.042685345317373447e+00
2.172163934620343628e+00 -3.052939410031667578e+00
2.252614450717393524e+00 -3.070717081961785500e+00
2.333064966814443419e+00 -3.091284013931859587e+00
2.413515482911492871e+00 -3.138896526345913429e+00
2.493965999008542767e+00 -3.161891909795236266e+00
2.574416515105592662e+00 -3.141900498167206290e+00
2.654867031202642558e+00 -3.114623803131787216e+00
2.735317547299692009e+00 -3.122047954415935411e+00
2.815768063396741905e+00 -3.134420822835255027e+00
2.896218579493791356e+00 -3.148098902352803208e+00
2.976669095590841252e+00 -3.131534280383545532e+00
3.057119611687890703e+00 -3.099586996677512030e+00
3.137570127784940599e+00 -3.049541935233216705e+00
3.218020643881990495e+00 -3.026261333090692673e+00
3.298471159979039946e+00 -3.020324603413603093e+00
3.378921676076090286e+00 -3.010340282033522552e+00
3.459372192173139737e+00 -3.019015126551947148e+00
3.539822708270189189e+00 -3.003793644619578096e+00
3.620273224367239528e+00 -2.999337207024287633e+00
3.700723740464288980e+00 -3.030204794177968619e+00
3.781174256561339320e+00 -3.062726161191126284e+00
3.861624772658388771e+00 -3.076275107282456123e+00
3.942075288755438223e+00 -3.104097351444237152e+00
4.022525804852488562e+00 -3.115079015063135781e+00
4.102976320949538014e+00 -3.148023803121345221e+00
4.183426837046588354e+00 -3.192181706024562970e+00
4.263877353143637805e+00 -3.232476242272307676e+00
4.344327869240687257e+00 -3.192197325939774011e+00
4.424778385337737596e+00 -3.137448330702859334e+00
4.505228901434787048e+00 -3.123401664134570321e+00
4.585679417531836499e+00 -3.113136439734671690e+00
4.666129933628886839e+00 -3.124273779282109587e+00
4.746580449725936290e+00 -3.167743534853657117e+00
4.827030965822985742e+00 -3.180673065115057874e+00
4.907481481920036082e+00 -3.171161985882394951e+00
4.987931998017085533e+00 -3.141512106230691437e+00
5.068382514114135873e+00 -3.114965472773754129e+00
5.148833030211185324e+00 -3.106120902975326725e+00
5.229283546308234776e+00 -3.095105312674075737e+00
5.309734062405285115e+00 -3.096577805093859048e+00
5.390184578502334567e+00 -3.105682054618049026e+00
5.470635094599384018e+00 -3.134101884820782224e+00
5.551085610696433470e+00 -3.155504898113500545e+00
5.631536126793483810e+00 -3.150296337745969399e+00
5.711986642890533261e+00 -3.136729438868503195e+00
5.792437158987582713e+00 -3.137500362170924539e+00
5.872887675084633052e+00 -3.141777341685532132e+00
5.953338191181682504e+00 -3.154384115951009093e+00
6.033788707278731955e+00 -3.163023231420022618e+00
6.114239223375781407e+00 -3.175721887735209137e+00
6.194689739472831747e+00 -3.208702981248850783e+00
6.275140255569881198e+00 -3.227400723365278168e+00
6.355590771666931538e+00 -3.235322134753265022e+00
6.436041287763980989e+00 -3.266648950828948017e+00
6.516491803861030441e+00 -3.294778438709523360e+00
6.596942319958079892e+00 -3.303308408255668294e+00
6.677392836055131120e+00 -3.278791502934258695e+00
6.757843352152180572e+00 -3.262351668982312880e+00
6.838293868249230023e+00 -3.248784081594116913e+00
6.918744384346279475e+00 -3.238838488345880506e+00
6.999194900443328926e+00 -3.229440972740121651e+00
7.079645416540378378e+00 -3.214596493996988436e+00
7.160095932637429605e+00 -3.201424467795170870e+00
7.240546448734479057e+00 -3.181951904717791546e+00
7.320996964831528508e+00 -3.158217570971314725e+00
7.401447480928577960e+00 -3.165940452825502405e+00
7.481897997025627411e+00 -3.193598006831736225e+00
7.562348513122678639e+00 -3.197861305727867087e+00
7.642799029219728091e+00 -3.203316746013618044e+00
7.723249545316777542e+00 -3.223542350250122368e+00
7.803700061413826994e+00 -3.223127194065574574e+00
7.884150577510876445e+00 -3.176916973298571811e+00
7.964601093607927673e+00 -3.149692033109742884e+00
8.045051609704977125e+00 -3.155637562178546851e+00
8.125502125802025688e+00 -3.169884485814501218e+00
8.205952641899076028e+00 -3.200637563065835245e+00
8.286403157996124591e+00 -3.216282185310901376e+00
8.366853674093176707e+00 -3.224042121252451487e+00
8.447304190190225270e+00 -3.208472162148169549e+00
8.527754706287275610e+00 -3.184293857766656632e+00
8.608205222384324173e+00 -3.181186077004012791e+00
8.688655738481374513e+00 -3.192706120463589592e+00
8.769106254578423076e+00 -3.223425586870421355e+00
8.849556770675475192e+00 -3.248904007525279969e+00
8.930007286772523756e+00 -3.258473741105969435e+00
9.010457802869574095e+00 -3.248841996133090770e+00
9.090908318966622659e+00 -3.228915249184980851e+00
9.171358835063672998e+00 -3.236813251254603063e+00
9.251809351160723338e+00 -3.252576432587222399e+00
9.332259867257773678e+00 -3.272059094484421671e+00
9.412710383354822241e+00 -3.277514377705841753e+00
9.493160899451872581e+00 -3.267947725578415952e+00
9.573611415548921144e+00 -3.268509100550835988e+00
9.654061931645971484e+00 -3.264233186484089888e+00
9.734512447743021823e+00 -3.283821132645821095e+00
9.814962963840072163e+00 -3.306597405382727395e+00
9.895413479937120727e+00 -3.288196374045418313e+00
9.975863996034171066e+00 -3.249278119283900867e+00
1.005631451213121963e+01 -3.233061115265063457e+00
1.013676502822827175e+01 -3.221126303130894986e+00
1.021721554432532031e+01 -3.225572211575262305e+00
1.029766606042237065e+01 -3.245756183882954282e+00
