0.000000000000000000e+00 -1.549019599857431873e-01
8.045051609704977069e-02 -1.938356910167577107e-01
1.609010321940995414e-01 -4.581998619521066018e-01
2.413515482911492982e-01 -1.140654036077472844e+00
3.218020643881990828e-01 -1.604812143760829146e+00
4.022525804852488118e-01 -2.117860283152044776e+00
4.827030965822985964e-01 -2.628938574307380982e+00
5.631536126793483810e-01 -2.852850508193574441e+00
6.436041287763981655e-01 -3.085864913744952531e+00
7.240546448734478391e-01 -3.273291534503377953e+00
8.045051609704976237e-01 -3.374416095834468887e+00
8.849556770675472972e-01 -3.400597842950271676e+00
9.654061931645971928e-01 -3.518427353044055295e+00
1.045856709261647088e+00 -3.663316991367099096e+00
1.126307225358696762e+00 -3.727952254490674022e+00
1.206757741455746435e+00 -3.715209022136289008e+00
1.287208257552796331e+00 -3.666497780308634269e+00
1.367658773649846005e+00 -3.639861300275561984e+00
1.448109289746895678e+00 -3.626604788993913253e+00
1.528559805843945352e+00 -3.575559311812024799e+00
1.609010321940995247e+00 -3.501248747024316543e+00
1.689460838038045143e+00 -3.456049935453920696e+00
1.769911354135094594e+00 -3.357215821848460013e+00
1.850361870232144490e+00 -3.241073104524969217e+00
1.930812386329194386e+00 -3.125253321115581517e+00
2.011262902426244281e+00 -3.087783770582817944e+00
2.091713418523294177e+00 -3.105864174432428459e+00
2.172163934620343628e+00 -3.100348589886537276e+00
2.252614450717393524e+00 -3.059340593660890395e+00
2.333064966814443419e+00 -3.012687822723308262e+00
2.413515482911492871e+00 -2.991308747413099933e+00
2.493965999008542767e+00 -3.000923918910005650e+00
2.574416515105592662e+00 -3.048892950971517024e+00
2.654867031202642558e+00 -3.101299128425901941e+00
2.735317547299692009e+00 -3.133617589851050766e+00
2.815768063396741905e+00 -3.135629504232781972e+00
2.896218579493791356e+00 -3.132618625081214248e+00
2.976669095590841252e+00 -3.121541651784821347e+00
3.057119611687890703e+00 -3.126715513324402895e+00
3.137570127784940599e+00 -3.126872118192606020e+00
3.218020643881990495e+00 -3.122106953124249795e+00
3.298471159979039946e+00 -3.132564420642102387e+00
3.378921676076090286e+00 -3.115606666632298349e+00
3.459372192173139737e+00 -3.094513496645757922e+00
3.539822708270189189e+00 -3.097972778966687990e+00
3.620273224367239528e+00 -3.116813328588205589e+00
3.700723740464288980e+00 -3.112894919816543204e+00
3.781174256561339320e+00 -3.062503983569154098e+00
3.861624772658388771e+00 -3.037635983559286768e+00
3.942075288755438223e+00 -2.998457046875943721e+00
4.022525804852488562e+00 -2.979567888421451372e+00
4.102976320949538014e+00 -2.993583832125111588e+00
4.183426837046588354e+00 -3.037858094898040040e+00
4.263877353143637805e+00 -3.095906214612440532e+00
4.344327869240687257e+00 -3.157812023382533084e+00
4.424778385337737596e+00 -3.201697950246485291e+00
4.505228901434787048e+00 -3.186357161509076885e+00
4.585679417531836499e+00 -3.164897183377385126e+00
4.666129933628886839e+00 -3.155161999589075172e+00
4.746580449725936290e+00 -3.142256288341167103e+00
4.827030965822985742e+00 -3.112292247104012866e+00
4.907481481920036082e+00 -3.093864517536306202e+00
4.987931998017085533e+00 -3.096443986501623780e+00
5.068382514114135873e+00 -3.118304066418428278e+00
5.148833030211185324e+00 -3.131320530831750659e+00
5.229283546308234776e+00 -3.146174425273589481e+00
5.309734062405285115e+00 -3.135451480598625107e+00
5.390184578502334567e+00 -3.093773567471324704e+00
5.470635094599384018e+00 -3.093306612004746103e+00
5.551085610696433470e+00 -3.146754875446255539e+00
5.631536126793483810e+00 -3.192062675535312088e+00
5.711986642890533261e+00 -3.197382857152325286e+00
5.792437158987582713e+00 -3.199142298808328011e+00
5.872887675084633052e+00 -3.238395154820033373e+00
5.953338191181682504e+00 -3.235375590894673969e+00
6.033788707278731955e+00 -3.217737455338228081e+00
6.114239223375781407e+00 -3.181697475333786329e+00
6.194689739472831747e+00 -3.165761401584649359e+00
6.275140255569881198e+00 -3.138111656505397473e+00
6.355590771666931538e+00 -3.112091114461572161e+00
6.436041287763980989e+00 -3.106003108967120951e+00
6.516491803861030441e+00 -3.104409155732713366e+00
6.596942319958079892e+00 -3.115281399600310142e+00
6.677392836055131120e+00 -3.147726862352643984e+00
6.757843352152180572e+00 -3.204952752018203732e+00
6.838293868249230023e+00 -3.233342353196646535e+00
6.918744384346279475e+00 -3.233190661995480220e+00
6.999194900443328926e+00 -3.230314988478355964e+00
7.079645416540378378e+00 -3.202996009934523602e+00
7.160095932637429605e+00 -3.183114810140146300e+00
7.240546448734479057e+00 -3.184817681507690956e+00
7.320996964831528508e+00 -3.203583621476183474e+00
7.401447480928577960e+00 -3.214324273983823144e+00
7.481897997025627411e+00 -3.230646749173688548e+00
7.562348513122678639e+00 -3.228257683576090553e+00
7.642799029219728091e+00 -3.212643440256425009e+00
7.723249545316777542e+00 -3.189937442125729383e+00
7.803700061413826994e+00 -3.191458136761818665e+00
7.884150577510876445e+00 -3.224664259802994426e+00
7.964601093607927673e+00 -3.227472350900328024e+00
8.045051609704977125e+00 -3.215817866384924617e+00
8.125502125802025688e+00 -3.227093889061628307e+00
8.205952641899076028e+00 -3.255485673164530080e+00
8.286403157996124591e+00 -3.242752605883062689e+00
8.366853674093176707e+00 -3.215917433268519421e+00
8.447304190190225270e+00 -3.195832302163764904e+00
8.527754706287275610e+00 -3.208679825625482263e+00
8.608205222384324173e+00 -3.226602939009685755e+00
8.688655738481374513e+00 -3.223442651680234139e+00
8.769106254578423076e+00 -3.194750653556026609e+00
8.849556770675475192e+00 -3.216968485457464944e+00
8.930007286772523756e+00 -3.272036471469796926e+00
9.010457802869574095e+00 -3.296715439094115574e+00
9.090908318966622659e+00 -3.276571234230629237e+00
9.171358835063672998e+00 -3.257161119745350941e+00
9.251809351160723338e+00 -3.238711810307684402e+00
9.332259867257773678e+00 -3.210700222109214685e+00
9.412710383354822241e+00 -3.213472410344488939e+00
9.493160899451872581e+00 -3.240726606288844014e+00
9.573611415548921144e+00 -3.261940643008470975e+00
9.654061931645971484e+00 -3.264834866825824022e+00
9.734512447743021823e+00 -3.268188184357462944e+00
9.814962963840072163e+00 -3.282748885393325544e+00
9.895413479937120727e+00 -3.302173501271569389e+00
9.975863996034171066e+00 -3.306856416191386927e+00
1.005631451213121963e+01 -3.290086659538224545e+00
1.013676502822827175e+01 -3.276643573519308905e+00
1.021721554432532031e+01 -3.292324418694091648e+00
1.029766606042237065e+01 -3.301133547195736817e+00
