0.000000000000000000e+00 -1.549019599857431873e-01
8.045051609704977069e-02 -1.934747492348571629e-01
1.609010321940995414e-01 -5.195550311972365609e-01
2.413515482911492982e-01 -1.199570986834527009e+00
3.218020643881990828e-01 -1.740883343782889670e+00
4.022525804852488118e-01 -2.371053741854900032e+00
4.827030965822985964e-01 -2.670067363959735651e+00
5.631536126793483810e-01 -2.974318243538414563e+00
6.436041287763981655e-01 -3.152398238437736921e+00
7.240546448734478391e-01 -3.263019747094812573e+00
8.045051609704976237e-01 -3.366597807296918266e+00
8.849556770675472972e-01 -3.462324366665101127e+00
9.654061931645971928e-01 -3.520497578594922405e+00
1.045856709261647088e+00 -3.547302267130609366e+00
1.126307225358696762e+00 -3.571959352929056752e+00
1.206757741455746435e+00 -3.608430129014948307e+00
1.287208257552796331e+00 -3.630859817365902575e+00
1.367658773649846005e+00 -3.604908761407977114e+00
1.448109289746895678e+00 -3.485725891284312095e+00
1.528559805843945352e+00 -3.368125050429681355e+00
1.609010321940995247e+00 -3.327870513487145132e+00
1.689460838038045143e+00 -3.319214559399421116e+00
1.769911354135094594e+00 -3.250901681287056366e+00
1.850361870232144490e+00 -3.176574358705527068e+00
1.930812386329194386e+00 -3.179077924943516820e+00
2.011262902426244281e+00 -3.185446103544915086e+00
2.091713418523294177e+00 -3.162246543437833513e+00
2.172163934620343628e+00 -3.129414086286819163e+00
2.252614450717393524e+00 -3.112390747617516329e+00
2.333064966814443419e+00 -3.112956494806317309e+00
2.413515482911492871e+00 -3.134174032226793027e+00
2.493965999008542767e+00 -3.174135916886069442e+00
2.574416515105592662e+00 -3.154538079510557758e+00
2.654867031202642558e+00 -3.126151127995647538e+00
2.735317547299692009e+00 -3.139341907414859634e+00
2.815768063396741905e+00 -3.197001755498239728e+00
2.896218579493791356e+00 -3.167940496569696673e+00
2.976669095590841252e+00 -3.120357011793348345e+00
3.057119611687890703e+00 -3.097168766638959791e+00
3.137570127784940599e+00 -3.106069581683156944e+00
3.218020643881990495e+00 -3.072239717495178102e+00
3.298471159979039946e+00 -3.061817813518513454e+00
3.378921676076090286e+00 -3.065157014182370521e+00
3.459372192173139737e+00 -3.072188637729210026e+00
3.539822708270189189e+00 -3.081973163783396252e+00
3.620273224367239528e+00 -3.075624350368629578e+00
3.700723740464288980e+00 -3.058557780167224571e+00
3.781174256561339320e+00 -3.079285928286412233e+00
3.861624772658388771e+00 -3.123720681256275444e+00
3.942075288755438223e+00 -3.127149654522870303e+00
4.022525804852488562e+00 -3.072290751907200690e+00
4.102976320949538014e+00 -3.036299574830622738e+00
4.183426837046588354e+00 -3.040196169162053152e+00
4.263877353143637805e+00 -3.048248737306709977e+00
4.344327869240687257e+00 -3.076321942362087558e+00
4.424778385337737596e+00 -3.116853238503292101e+00
4.505228901434787048e+00 -3.164081888303376999e+00
4.585679417531836499e+00 -3.201634627726394733e+00
4.666129933628886839e+00 -3.214607704630294549e+00
4.746580449725936290e+00 -3.203534493405275629e+00
4.827030965822985742e+00 -3.168217154176302230e+00
4.907481481920036082e+00 -3.150710113484194164e+00
4.987931998017085533e+00 -3.161424500588598807e+00
5.068382514114135873e+00 -3.174137433198390923e+00
5.148833030211185324e+00 -3.186754338144835330e+00
5.229283546308234776e+00 -3.166818546373643350e+00
5.309734062405285115e+00 -3.135438388169787594e+00
5.390184578502334567e+00 -3.130247435590274740e+00
5.470635094599384018e+00 -3.135824512285903864e+00
5.551085610696433470e+00 -3.155391520990483034e+00
5.631536126793483810e+00 -3.201188170161558766e+00
5.711986642890533261e+00 -3.226197725465730581e+00
5.792437158987582713e+00 -3.215245128897734173e+00
5.872887675084633052e+00 -3.186460614686501547e+00
5.953338191181682504e+00 -3.191762360220884887e+00
6.033788707278731955e+00 -3.220327494550741854e+00
6.114239223375781407e+00 -3.219314759967297324e+00
6.194689739472831747e+00 -3.194525086889943744e+00
6.275140255569881198e+00 -3.196381199997158085e+00
6.355590771666931538e+00 -3.190733762545556296e+00
6.436041287763980989e+00 -3.175367914697205141e+00
6.516491803861030441e+00 -3.167639813730511733e+00
6.596942319958079892e+00 -3.154521903808080285e+00
6.677392836055131120e+00 -3.156093413707969919e+00
6.757843352152180572e+00 -3.185717685333705251e+00
6.838293868249230023e+00 -3.200068712911296576e+00
6.918744384346279475e+00 -3.198025830945320447e+00
6.999194900443328926e+00 -3.200657096961252890e+00
7.079645416540378378e+00 -3.223996228636979211e+00
7.160095932637429605e+00 -3.231237140843066236e+00
7.240546448734479057e+00 -3.209317538300377581e+00
7.320996964831528508e+00 -3.198683444225859152e+00
7.401447480928577960e+00 -3.197983793657217522e+00
7.481897997025627411e+00 -3.194447239811757377e+00
7.562348513122678639e+00 -3.188513993833268501e+00
7.642799029219728091e+00 -3.187292043083387760e+00
7.723249545316777542e+00 -3.202951142323766209e+00
7.803700061413826994e+00 -3.244714364163907128e+00
7.884150577510876445e+00 -3.285732092863631770e+00
7.964601093607927673e+00 -3.287713899460462219e+00
8.045051609704977125e+00 -3.257687232624459917e+00
8.125502125802025688e+00 -3.242568630672057584e+00
8.205952641899076028e+00 -3.256678598478027098e+00
8.286403157996124591e+00 -3.253137870782524921e+00
8.366853674093176707e+00 -3.234579164956835395e+00
8.447304190190225270e+00 -3.205203745608797394e+00
8.527754706287275610e+00 -3.212583516233034509e+00
8.608205222384324173e+00 -3.241077463810131842e+00
8.688655738481374513e+00 -3.250455335180650884e+00
8.769106254578423076e+00 -3.236577080262566852e+00
8.849556770675475192e+00 -3.247970341417444118e+00
8.930007286772523756e+00 -3.277163275797464248e+00
9.010457802869574095e+00 -3.274013337131821633e+00
9.090908318966622659e+00 -3.274377879640781419e+00
9.171358835063672998e+00 -3.296826324475603531e+00
9.251809351160723338e+00 -3.326260808573787475e+00
9.332259867257773678e+00 -3.323915128056394330e+00
9.412710383354822241e+00 -3.273132621405965281e+00
9.493160899451872581e+00 -3.250355053380416859e+00
9.573611415548921144e+00 -3.259367188738325982e+00
9.654061931645971484e+00 -3.289015850972261568e+00
9.734512447743021823e+00 -3.294889390437337529e+00
9.814962963840072163e+00 -3.272324209238100412e+00
9.895413479937120727e+00 -3.249569894861519703e+00
9.975863996034171066e+00 -3.255434464017738172e+00
1.005631451213121963e+01 -3.281097211991436779e+00
1.013676502822827175e+01 -3.279634827379193318e+00
1.021721554432532031e+01 -3.292471558018117861e+00
1.029766606042237065e+01 -3.299184622588195559e+00
