0.000000000000000000e+00 -1.549019599857431873e-01
8.045051609704977069e-02 -3.736510569184432473e-01
1.609010321940995414e-01 -9.889707912385775623e-01
2.413515482911492982e-01 -2.230422975492811322e+00
3.218020643881990828e-01 -3.210181143892373967e+00
4.022525804852488118e-01 -4.308085891849898097e+00
4.827030965822985964e-01 -5.161968267725002946e+00
5.631536126793483810e-01 -5.771960319932510686e+00
6.436041287763981655e-01 -6.122106011457232100e+00
7.240546448734478391e-01 -6.426490535616617095e+00
8.045051609704976237e-01 -6.744903064995025233e+00
8.849556770675472972e-01 -6.891368208150865371e+00
9.654061931645971928e-01 -7.018730055010011348e+00
1.045856709261647088e+00 -7.132172114205737046e+00
1.126307225358696762e+00 -7.188346941156993353e+00
1.206757741455746435e+00 -7.214750189161656557e+00
1.287208257552796331e+00 -7.186129908766056396e+00
1.367658773649846005e+00 -7.141937708771890492e+00
1.448109289746895678e+00 -7.005910805837808120e+00
1.528559805843945352e+00 -6.940063886403225801e+00
1.609010321940995247e+00 -6.966127838307201614e+00
1.689460838038045143e+00 -6.960683849480527208e+00
1.769911354135094594e+00 -6.740176141084321060e+00
1.850361870232144490e+00 -6.558574398007035455e+00
1.930812386329194386e+00 -6.439642818578193761e+00
2.011262902426244281e+00 -6.342162801880085077e+00
2.091713418523294177e+00 -6.225963259677972594e+00
2.172163934620343628e+00 -6.201207597266249039e+00
2.252614450717393524e+00 -6.139167627980880226e+00
2.333064966814443419e+00 -6.090035607486447233e+00
2.413515482911492871e+00 -6.145260541648358554e+00
2.493965999008542767e+00 -6.273312918785591386e+00
2.574416515105592662e+00 -6.333359595758035532e+00
2.654867031202642558e+00 -6.306226923328908995e+00
2.735317547299692009e+00 -6.286241966861028097e+00
2.815768063396741905e+00 -6.268325663038327278e+00
2.896218579493791356e+00 -6.204489868100294458e+00
2.976669095590841252e+00 -6.179364661727439589e+00
3.057119611687890703e+00 -6.198304203168904181e+00
3.137570127784940599e+00 -6.264954233669547179e+00
3.218020643881990495e+00 -6.364215479841649703e+00
3.298471159979039946e+00 -6.448375880098732971e+00
3.378921676076090286e+00 -6.443462223746474926e+00
3.459372192173139737e+00 -6.432641015008352170e+00
3.539822708270189189e+00 -6.352985482426739772e+00
3.620273224367239528e+00 -6.252640727413168342e+00
3.700723740464288980e+00 -6.210521980238029371e+00
3.781174256561339320e+00 -6.229344640700525737e+00
3.861624772658388771e+00 -6.300023266806318745e+00
3.942075288755438223e+00 -6.325067114107566724e+00
4.022525804852488562e+00 -6.247486010788020572e+00
4.102976320949538014e+00 -6.157161672269594099e+00
4.183426837046588354e+00 -6.126888774629727585e+00
4.263877353143637805e+00 -6.133135531105523341e+00
4.344327869240687257e+00 -6.232741959893353112e+00
4.424778385337737596e+00 -6.320442466470594489e+00
4.505228901434787048e+00 -6.316388746356616402e+00
4.585679417531836499e+00 -6.243312896592506434e+00
4.666129933628886839e+00 -6.197470710497901436e+00
4.746580449725936290e+00 -6.276061203179351011e+00
4.827030965822985742e+00 -6.393566267345193843e+00
4.907481481920036082e+00 -6.450522897545510226e+00
4.987931998017085533e+00 -6.389888193603727728e+00
5.068382514114135873e+00 -6.300124996528476906e+00
5.148833030211185324e+00 -6.229026179194725010e+00
5.229283546308234776e+00 -6.192135460202941033e+00
5.309734062405285115e+00 -6.180446857479452660e+00
5.390184578502334567e+00 -6.215823456049712092e+00
5.470635094599384018e+00 -6.234425039883967123e+00
5.551085610696433470e+00 -6.251573934105295827e+00
5.631536126793483810e+00 -6.301435955730597449e+00
5.711986642890533261e+00 -6.342686834959716968e+00
5.792437158987582713e+00 -6.355119505622169207e+00
5.872887675084633052e+00 -6.371919084890295792e+00
5.953338191181682504e+00 -6.314872368867029628e+00
6.033788707278731955e+00 -6.273508447186093129e+00
6.114239223375781407e+00 -6.293749153319234679e+00
6.194689739472831747e+00 -6.335882291713659242e+00
6.275140255569881198e+00 -6.311045020691883778e+00
6.355590771666931538e+00 -6.304304990212042270e+00
6.436041287763980989e+00 -6.310493216058707056e+00
6.516491803861030441e+00 -6.359539593267691693e+00
6.596942319958079892e+00 -6.356368349379470040e+00
6.677392836055131120e+00 -6.368123146286313485e+00
6.757843352152180572e+00 -6.387775971333759628e+00
6.838293868249230023e+00 -6.400971931104805890e+00
6.918744384346279475e+00 -6.418566627826838733e+00
6.999194900443328926e+00 -6.413649975370053546e+00
7.079645416540378378e+00 -6.377690791554958771e+00
7.160095932637429605e+00 -6.338449990297652548e+00
7.240546448734479057e+00 -6.287659174167309573e+00
7.320996964831528508e+00 -6.270640732472775980e+00
7.401447480928577960e+00 -6.260015957419430066e+00
7.481897997025627411e+00 -6.290618253921035574e+00
7.562348513122678639e+00 -6.392251672838611398e+00
7.642799029219728091e+00 -6.446118937544791372e+00
7.723249545316777542e+00 -6.428903109548413930e+00
7.803700061413826994e+00 -6.380880853753104986e+00
7.884150577510876445e+00 -6.393338413822912791e+00
7.964601093607927673e+00 -6.443159039001094435e+00
8.045051609704977125e+00 -6.473125467058980398e+00
8.125502125802025688e+00 -6.470558945444497390e+00
8.205952641899076028e+00 -6.428083628046143971e+00
8.286403157996124591e+00 -6.374535531349716955e+00
8.366853674093176707e+00 -6.387037187960095785e+00
8.447304190190225270e+00 -6.430238540161452576e+00
8.527754706287275610e+00 -6.456053788920678826e+00
8.608205222384324173e+00 -6.473467400164638619e+00
8.688655738481374513e+00 -6.481021186926369637e+00
8.769106254578423076e+00 -6.480254364575341874e+00
8.849556770675475192e+00 -6.469918822931775004e+00
8.930007286772523756e+00 -6.531371877259590342e+00
9.010457802869574095e+00 -6.572097944452314877e+00
9.090908318966622659e+00 -6.560602143404364206e+00
9.171358835063672998e+00 -6.513419617029305719e+00
9.251809351160723338e+00 -6.507852809439993003e+00
9.332259867257773678e+00 -6.548547846852296850e+00
9.412710383354822241e+00 -6.601073498392373118e+00
9.493160899451872581e+00 -6.606686252793799063e+00
9.573611415548921144e+00 -6.561794121678642178e+00
9.654061931645971484e+00 -6.562599691810068414e+00
9.734512447743021823e+00 -6.625793892288581510e+00
9.814962963840072163e+00 -6.639331266036359480e+00
9.895413479937120727e+00 -6.650482497276841265e+00
9.975863996034171066e+00 -6.680631641880609095e+00
1.005631451213121963e+01 -6.710264797557225158e+00
1.013676502822827175e+01 -6.698998291473796662e+00
1.021721554432532031e+01 -6.672958111186267693e+00
1.029766606042237065e+01 -6.621692342027141187e+00
